# Pulseq sequence file
# Created by MATLAB mr toolbox

[VERSION]
major 1
minor 2
revision 1

# Format of blocks:
#  #  D RF  GX  GY  GZ ADC
[BLOCKS]
  1  0  1   0   0   0  0
  2  0  0   1   1   0  0
  3  0  0   0   2   0  0
  4  1  0   0   0   0  0
  5  0  0   3   0   0  1
  6  0  0   2   0   0  0
  7  0  0   0   2   0  0
  8  1  0   0   0   0  0
  9  0  0   4   0   0  1
 10  0  0   5   0   0  0
 11  0  0   0   2   0  0
 12  1  0   0   0   0  0
 13  0  0   3   0   0  1
 14  0  0   2   0   0  0
 15  0  0   0   2   0  0
 16  1  0   0   0   0  0
 17  0  0   4   0   0  1
 18  0  0   5   0   0  0
 19  0  0   0   2   0  0
 20  1  0   0   0   0  0
 21  0  0   3   0   0  1
 22  0  0   2   0   0  0
 23  0  0   0   2   0  0
 24  1  0   0   0   0  0
 25  0  0   4   0   0  1
 26  0  0   5   0   0  0
 27  0  0   0   2   0  0
 28  1  0   0   0   0  0
 29  0  0   3   0   0  1
 30  0  0   2   0   0  0
 31  0  0   0   2   0  0
 32  1  0   0   0   0  0
 33  0  0   4   0   0  1
 34  0  0   5   0   0  0
 35  0  0   0   2   0  0
 36  1  0   0   0   0  0
 37  0  0   3   0   0  1
 38  0  0   2   0   0  0
 39  0  0   0   2   0  0
 40  1  0   0   0   0  0
 41  0  0   4   0   0  1
 42  0  0   5   0   0  0
 43  0  0   0   2   0  0
 44  1  0   0   0   0  0
 45  0  0   3   0   0  1
 46  0  0   2   0   0  0
 47  0  0   0   2   0  0
 48  1  0   0   0   0  0
 49  0  0   4   0   0  1
 50  0  0   5   0   0  0
 51  0  0   0   2   0  0
 52  1  0   0   0   0  0
 53  0  0   3   0   0  1
 54  0  0   2   0   0  0
 55  0  0   0   2   0  0
 56  1  0   0   0   0  0
 57  0  0   4   0   0  1
 58  0  0   5   0   0  0
 59  0  0   0   2   0  0
 60  1  0   0   0   0  0
 61  0  0   3   0   0  1
 62  0  0   2   0   0  0
 63  0  0   0   2   0  0
 64  1  0   0   0   0  0
 65  0  0   4   0   0  1
 66  0  0   5   0   0  0
 67  0  0   0   2   0  0
 68  1  0   0   0   0  0
 69  0  0   3   0   0  1
 70  0  0   2   0   0  0
 71  0  0   0   2   0  0
 72  1  0   0   0   0  0
 73  0  0   4   0   0  1
 74  0  0   5   0   0  0
 75  0  0   0   2   0  0
 76  1  0   0   0   0  0
 77  0  0   3   0   0  1
 78  0  0   2   0   0  0
 79  0  0   0   2   0  0
 80  1  0   0   0   0  0
 81  0  0   4   0   0  1
 82  0  0   5   0   0  0
 83  0  0   0   2   0  0
 84  1  0   0   0   0  0
 85  0  0   3   0   0  1
 86  0  0   2   0   0  0
 87  0  0   0   2   0  0
 88  1  0   0   0   0  0
 89  0  0   4   0   0  1
 90  0  0   5   0   0  0
 91  0  0   0   2   0  0
 92  1  0   0   0   0  0
 93  0  0   3   0   0  1
 94  0  0   2   0   0  0
 95  0  0   0   2   0  0
 96  1  0   0   0   0  0
 97  0  0   4   0   0  1
 98  0  0   5   0   0  0
 99  0  0   0   2   0  0
100  1  0   0   0   0  0
101  0  0   3   0   0  1
102  0  0   2   0   0  0
103  0  0   0   2   0  0
104  1  0   0   0   0  0
105  0  0   4   0   0  1
106  0  0   5   0   0  0
107  0  0   0   2   0  0
108  1  0   0   0   0  0
109  0  0   3   0   0  1
110  0  0   2   0   0  0
111  0  0   0   2   0  0
112  1  0   0   0   0  0
113  0  0   4   0   0  1
114  0  0   5   0   0  0
115  0  0   0   2   0  0
116  1  0   0   0   0  0
117  0  0   3   0   0  1
118  0  0   2   0   0  0
119  0  0   0   2   0  0
120  1  0   0   0   0  0
121  0  0   4   0   0  1
122  0  0   5   0   0  0
123  0  0   0   2   0  0
124  1  0   0   0   0  0
125  0  0   3   0   0  1
126  0  0   2   0   0  0
127  0  0   0   2   0  0
128  1  0   0   0   0  0
129  0  0   4   0   0  1
130  0  0   5   0   0  0
131  0  0   0   2   0  0
132  1  0   0   0   0  0
133  0  0   3   0   0  1
134  0  0   2   0   0  0
135  0  0   0   2   0  0
136  1  0   0   0   0  0
137  0  0   4   0   0  1
138  0  0   5   0   0  0
139  0  0   0   2   0  0
140  1  0   0   0   0  0
141  0  0   3   0   0  1
142  0  0   2   0   0  0
143  0  0   0   2   0  0
144  1  0   0   0   0  0
145  0  0   4   0   0  1
146  0  0   5   0   0  0
147  0  0   0   2   0  0
148  1  0   0   0   0  0
149  0  0   3   0   0  1
150  0  0   2   0   0  0
151  0  0   0   2   0  0
152  1  0   0   0   0  0
153  0  0   4   0   0  1
154  0  0   5   0   0  0
155  0  0   0   2   0  0
156  1  0   0   0   0  0
157  0  0   3   0   0  1
158  0  0   2   0   0  0
159  0  0   0   2   0  0
160  1  0   0   0   0  0
161  0  0   4   0   0  1
162  0  0   5   0   0  0
163  0  0   0   2   0  0
164  1  0   0   0   0  0
165  0  0   3   0   0  1
166  0  0   2   0   0  0
167  0  0   0   2   0  0
168  1  0   0   0   0  0
169  0  0   4   0   0  1
170  0  0   5   0   0  0
171  0  0   0   2   0  0
172  1  0   0   0   0  0
173  0  0   3   0   0  1
174  0  0   2   0   0  0
175  0  0   0   2   0  0
176  1  0   0   0   0  0
177  0  0   4   0   0  1
178  0  0   5   0   0  0
179  0  0   0   2   0  0
180  1  0   0   0   0  0
181  0  0   3   0   0  1
182  0  0   2   0   0  0
183  0  0   0   2   0  0
184  1  0   0   0   0  0
185  0  0   4   0   0  1
186  0  0   5   0   0  0
187  0  0   0   2   0  0
188  1  0   0   0   0  0
189  0  0   3   0   0  1
190  0  0   2   0   0  0
191  0  0   0   2   0  0
192  1  0   0   0   0  0
193  0  0   4   0   0  1
194  0  0   5   0   0  0
195  0  0   0   2   0  0
196  1  0   0   0   0  0
197  0  0   3   0   0  1
198  0  0   2   0   0  0
199  0  0   0   2   0  0
200  1  0   0   0   0  0
201  0  0   4   0   0  1
202  0  0   5   0   0  0
203  0  0   0   2   0  0
204  1  0   0   0   0  0
205  0  0   3   0   0  1
206  0  0   2   0   0  0
207  0  0   0   2   0  0
208  1  0   0   0   0  0
209  0  0   4   0   0  1
210  0  0   5   0   0  0
211  0  0   0   2   0  0
212  1  0   0   0   0  0
213  0  0   3   0   0  1
214  0  0   2   0   0  0
215  0  0   0   2   0  0
216  1  0   0   0   0  0
217  0  0   4   0   0  1
218  0  0   5   0   0  0
219  0  0   0   2   0  0
220  1  0   0   0   0  0
221  0  0   3   0   0  1
222  0  0   2   0   0  0
223  0  0   0   2   0  0
224  1  0   0   0   0  0
225  0  0   4   0   0  1
226  0  0   5   0   0  0
227  0  0   0   2   0  0
228  1  0   0   0   0  0
229  0  0   3   0   0  1
230  0  0   2   0   0  0
231  0  0   0   2   0  0
232  1  0   0   0   0  0
233  0  0   4   0   0  1
234  0  0   5   0   0  0
235  0  0   0   2   0  0
236  1  0   0   0   0  0
237  0  0   3   0   0  1
238  0  0   2   0   0  0
239  0  0   0   2   0  0
240  1  0   0   0   0  0
241  0  0   4   0   0  1
242  0  0   5   0   0  0
243  0  0   0   2   0  0
244  1  0   0   0   0  0
245  0  0   3   0   0  1
246  0  0   2   0   0  0
247  0  0   0   2   0  0
248  1  0   0   0   0  0
249  0  0   4   0   0  1
250  0  0   5   0   0  0
251  0  0   0   2   0  0
252  1  0   0   0   0  0
253  0  0   3   0   0  1
254  0  0   2   0   0  0
255  0  0   0   2   0  0
256  1  0   0   0   0  0
257  0  0   4   0   0  1
258  0  0   5   0   0  0
259  0  0   0   2   0  0
260  1  0   0   0   0  0
261  0  0   3   0   0  1
262  0  0   2   0   0  0
263  0  0   0   2   0  0
264  1  0   0   0   0  0
265  0  0   4   0   0  1
266  0  0   5   0   0  0
267  0  0   0   2   0  0
268  1  0   0   0   0  0
269  0  0   3   0   0  1
270  0  0   2   0   0  0
271  0  0   0   2   0  0
272  1  0   0   0   0  0
273  0  0   4   0   0  1
274  0  0   5   0   0  0
275  0  0   0   2   0  0
276  1  0   0   0   0  0
277  0  0   3   0   0  1
278  0  0   2   0   0  0
279  0  0   0   2   0  0
280  1  0   0   0   0  0
281  0  0   4   0   0  1
282  0  0   5   0   0  0
283  0  0   0   2   0  0
284  1  0   0   0   0  0
285  0  0   3   0   0  1
286  0  0   2   0   0  0
287  0  0   0   2   0  0
288  1  0   0   0   0  0
289  0  0   4   0   0  1
290  0  0   5   0   0  0
291  0  0   0   2   0  0
292  1  0   0   0   0  0
293  0  0   3   0   0  1
294  0  0   2   0   0  0
295  0  0   0   2   0  0
296  1  0   0   0   0  0
297  0  0   4   0   0  1
298  0  0   5   0   0  0
299  0  0   0   2   0  0
300  1  0   0   0   0  0
301  0  0   3   0   0  1
302  0  0   2   0   0  0
303  0  0   0   2   0  0
304  1  0   0   0   0  0
305  0  0   4   0   0  1
306  0  0   5   0   0  0
307  0  0   0   2   0  0
308  1  0   0   0   0  0
309  0  0   3   0   0  1
310  0  0   2   0   0  0
311  0  0   0   2   0  0
312  1  0   0   0   0  0
313  0  0   4   0   0  1
314  0  0   5   0   0  0
315  0  0   0   2   0  0
316  1  0   0   0   0  0
317  0  0   3   0   0  1
318  0  0   2   0   0  0
319  0  0   0   2   0  0
320  1  0   0   0   0  0
321  0  0   4   0   0  1
322  0  0   5   0   0  0
323  0  0   0   2   0  0
324  1  0   0   0   0  0
325  0  0   3   0   0  1
326  0  0   2   0   0  0
327  0  0   0   2   0  0
328  1  0   0   0   0  0
329  0  0   4   0   0  1
330  0  0   5   0   0  0
331  0  0   0   2   0  0
332  1  0   0   0   0  0
333  0  0   3   0   0  1
334  0  0   2   0   0  0
335  0  0   0   2   0  0
336  1  0   0   0   0  0
337  0  0   4   0   0  1
338  0  0   5   0   0  0
339  0  0   0   2   0  0
340  1  0   0   0   0  0
341  0  0   3   0   0  1
342  0  0   2   0   0  0
343  0  0   0   2   0  0
344  1  0   0   0   0  0
345  0  0   4   0   0  1
346  0  0   5   0   0  0
347  0  0   0   2   0  0
348  1  0   0   0   0  0
349  0  0   3   0   0  1
350  0  0   2   0   0  0
351  0  0   0   2   0  0
352  1  0   0   0   0  0
353  0  0   4   0   0  1
354  0  0   5   0   0  0
355  0  0   0   2   0  0
356  1  0   0   0   0  0
357  0  0   3   0   0  1
358  0  0   2   0   0  0
359  0  0   0   2   0  0
360  1  0   0   0   0  0
361  0  0   4   0   0  1
362  0  0   5   0   0  0
363  0  0   0   2   0  0
364  1  0   0   0   0  0
365  0  0   3   0   0  1
366  0  0   2   0   0  0
367  0  0   0   2   0  0
368  1  0   0   0   0  0
369  0  0   4   0   0  1
370  0  0   5   0   0  0
371  0  0   0   2   0  0
372  1  0   0   0   0  0
373  0  0   3   0   0  1
374  0  0   2   0   0  0
375  0  0   0   2   0  0
376  1  0   0   0   0  0
377  0  0   4   0   0  1
378  0  0   5   0   0  0
379  0  0   0   2   0  0
380  1  0   0   0   0  0
381  0  0   3   0   0  1
382  0  0   2   0   0  0
383  0  0   0   2   0  0
384  1  0   0   0   0  0
385  0  0   4   0   0  1
386  0  0   5   0   0  0
387  0  0   0   2   0  0
388  1  0   0   0   0  0
389  0  0   3   0   0  1
390  0  0   2   0   0  0
391  0  0   0   2   0  0
392  1  0   0   0   0  0
393  0  0   4   0   0  1
394  0  0   5   0   0  0
395  0  0   0   2   0  0
396  1  0   0   0   0  0
397  0  0   3   0   0  1
398  0  0   2   0   0  0
399  0  0   0   2   0  0
400  1  0   0   0   0  0
401  0  0   4   0   0  1
402  0  0   5   0   0  0
403  0  0   0   2   0  0
404  1  0   0   0   0  0
405  0  0   3   0   0  1
406  0  0   2   0   0  0
407  0  0   0   2   0  0
408  1  0   0   0   0  0
409  0  0   4   0   0  1
410  0  0   5   0   0  0
411  0  0   0   2   0  0
412  1  0   0   0   0  0
413  0  0   3   0   0  1
414  0  0   2   0   0  0
415  0  0   0   2   0  0
416  1  0   0   0   0  0
417  0  0   4   0   0  1
418  0  0   5   0   0  0
419  0  0   0   2   0  0
420  1  0   0   0   0  0
421  0  0   3   0   0  1
422  0  0   2   0   0  0
423  0  0   0   2   0  0
424  1  0   0   0   0  0
425  0  0   4   0   0  1
426  0  0   5   0   0  0
427  0  0   0   2   0  0
428  1  0   0   0   0  0
429  0  0   3   0   0  1
430  0  0   2   0   0  0
431  0  0   0   2   0  0
432  1  0   0   0   0  0
433  0  0   4   0   0  1
434  0  0   5   0   0  0
435  0  0   0   2   0  0
436  1  0   0   0   0  0
437  0  0   3   0   0  1
438  0  0   2   0   0  0
439  0  0   0   2   0  0
440  1  0   0   0   0  0
441  0  0   4   0   0  1
442  0  0   5   0   0  0
443  0  0   0   2   0  0
444  1  0   0   0   0  0
445  0  0   3   0   0  1
446  0  0   2   0   0  0
447  0  0   0   2   0  0
448  1  0   0   0   0  0
449  0  0   4   0   0  1
450  0  0   5   0   0  0
451  0  0   0   2   0  0
452  1  0   0   0   0  0
453  0  0   3   0   0  1
454  0  0   2   0   0  0
455  0  0   0   2   0  0
456  1  0   0   0   0  0
457  0  0   4   0   0  1
458  0  0   5   0   0  0
459  0  0   0   2   0  0
460  1  0   0   0   0  0
461  0  0   3   0   0  1
462  0  0   2   0   0  0
463  0  0   0   2   0  0
464  1  0   0   0   0  0
465  0  0   4   0   0  1
466  0  0   5   0   0  0
467  0  0   0   2   0  0
468  1  0   0   0   0  0
469  0  0   3   0   0  1
470  0  0   2   0   0  0
471  0  0   0   2   0  0
472  1  0   0   0   0  0
473  0  0   4   0   0  1
474  0  0   5   0   0  0
475  0  0   0   2   0  0
476  1  0   0   0   0  0
477  0  0   3   0   0  1
478  0  0   2   0   0  0
479  0  0   0   2   0  0
480  1  0   0   0   0  0
481  0  0   4   0   0  1
482  0  0   5   0   0  0
483  0  0   0   2   0  0
484  1  0   0   0   0  0
485  0  0   3   0   0  1
486  0  0   2   0   0  0
487  0  0   0   2   0  0
488  1  0   0   0   0  0
489  0  0   4   0   0  1
490  0  0   5   0   0  0
491  0  0   0   2   0  0
492  1  0   0   0   0  0
493  0  0   3   0   0  1
494  0  0   2   0   0  0
495  0  0   0   2   0  0
496  1  0   0   0   0  0
497  0  0   4   0   0  1
498  0  0   5   0   0  0
499  0  0   0   2   0  0
500  1  0   0   0   0  0
501  0  0   3   0   0  1
502  0  0   2   0   0  0
503  0  0   0   2   0  0
504  1  0   0   0   0  0
505  0  0   4   0   0  1
506  0  0   5   0   0  0
507  0  0   0   2   0  0
508  1  0   0   0   0  0
509  0  0   3   0   0  1
510  0  0   2   0   0  0
511  0  0   0   2   0  0
512  1  0   0   0   0  0
513  0  0   4   0   0  1
514  0  0   5   0   0  0

# Format of RF events:
# id amplitude mag_id phase_id delay freq phase
# ..        Hz   ....     ....    us   Hz   rad
[RF]
1      52.0833 1 2 0 0 0

# Format of trapezoid gradients:
# id amplitude rise flat fall delay
# ..      Hz/m   us   us   us    us
[TRAP]
 1     -90909.1   0 3200   0   0
 2      1420.45   0 3200   0   0
 3       181818   0 3200   0   0
 4      -181818   0 3200   0   0
 5     -1420.45   0 3200   0   0

# Format of ADC events:
# id num dwell delay freq phase
# ..  ..    ns    us   Hz   rad
[ADC]
1 128 25000 0 0 0

# Format of delays:
# id delay (us)
[DELAYS]
1 1000

# Sequence Shapes
[SHAPES]

shape_id 1
num_samples 3200
1
0
0
3197

shape_id 2
num_samples 3200
0
0
3198

