# Pulseq sequence file
# Created by MATLAB mr toolbox

[VERSION]
major 1
minor 2
revision 0

# Format of blocks:
#  #  D RF  GX  GY  GZ ADC
[BLOCKS]
  1  0  1   0   0   0  0
  2  0  0   1   2   0  0
  3  1  0   0   0   0  0
  4  0  0   3   0   0  1
  5  0  0   0   4   0  0
  6  2  0   0   0   0  0
  7  0  1   0   0   0  0
  8  0  0   1   5   0  0
  9  1  0   0   0   0  0
 10  0  0   3   0   0  1
 11  0  0   0   6   0  0
 12  2  0   0   0   0  0
 13  0  1   0   0   0  0
 14  0  0   1   7   0  0
 15  1  0   0   0   0  0
 16  0  0   3   0   0  1
 17  0  0   0   8   0  0
 18  2  0   0   0   0  0
 19  0  1   0   0   0  0
 20  0  0   1   9   0  0
 21  1  0   0   0   0  0
 22  0  0   3   0   0  1
 23  0  0   0  10   0  0
 24  2  0   0   0   0  0
 25  0  1   0   0   0  0
 26  0  0   1  11   0  0
 27  1  0   0   0   0  0
 28  0  0   3   0   0  1
 29  0  0   0  12   0  0
 30  2  0   0   0   0  0
 31  0  1   0   0   0  0
 32  0  0   1  13   0  0
 33  1  0   0   0   0  0
 34  0  0   3   0   0  1
 35  0  0   0  14   0  0
 36  2  0   0   0   0  0
 37  0  1   0   0   0  0
 38  0  0   1  15   0  0
 39  1  0   0   0   0  0
 40  0  0   3   0   0  1
 41  0  0   0  16   0  0
 42  2  0   0   0   0  0
 43  0  1   0   0   0  0
 44  0  0   1  17   0  0
 45  1  0   0   0   0  0
 46  0  0   3   0   0  1
 47  0  0   0  18   0  0
 48  2  0   0   0   0  0
 49  0  1   0   0   0  0
 50  0  0   1  19   0  0
 51  1  0   0   0   0  0
 52  0  0   3   0   0  1
 53  0  0   0  20   0  0
 54  2  0   0   0   0  0
 55  0  1   0   0   0  0
 56  0  0   1  21   0  0
 57  1  0   0   0   0  0
 58  0  0   3   0   0  1
 59  0  0   0  22   0  0
 60  2  0   0   0   0  0
 61  0  1   0   0   0  0
 62  0  0   1  23   0  0
 63  1  0   0   0   0  0
 64  0  0   3   0   0  1
 65  0  0   0  24   0  0
 66  2  0   0   0   0  0
 67  0  1   0   0   0  0
 68  0  0   1  25   0  0
 69  1  0   0   0   0  0
 70  0  0   3   0   0  1
 71  0  0   0  26   0  0
 72  2  0   0   0   0  0
 73  0  1   0   0   0  0
 74  0  0   1  27   0  0
 75  1  0   0   0   0  0
 76  0  0   3   0   0  1
 77  0  0   0  28   0  0
 78  2  0   0   0   0  0
 79  0  1   0   0   0  0
 80  0  0   1  29   0  0
 81  1  0   0   0   0  0
 82  0  0   3   0   0  1
 83  0  0   0  30   0  0
 84  2  0   0   0   0  0
 85  0  1   0   0   0  0
 86  0  0   1  31   0  0
 87  1  0   0   0   0  0
 88  0  0   3   0   0  1
 89  0  0   0  32   0  0
 90  2  0   0   0   0  0
 91  0  1   0   0   0  0
 92  0  0   1  33   0  0
 93  1  0   0   0   0  0
 94  0  0   3   0   0  1
 95  0  0   0  34   0  0
 96  2  0   0   0   0  0
 97  0  1   0   0   0  0
 98  0  0   1  35   0  0
 99  1  0   0   0   0  0
100  0  0   3   0   0  1
101  0  0   0  36   0  0
102  2  0   0   0   0  0
103  0  1   0   0   0  0
104  0  0   1  37   0  0
105  1  0   0   0   0  0
106  0  0   3   0   0  1
107  0  0   0  38   0  0
108  2  0   0   0   0  0
109  0  1   0   0   0  0
110  0  0   1  39   0  0
111  1  0   0   0   0  0
112  0  0   3   0   0  1
113  0  0   0  40   0  0
114  2  0   0   0   0  0
115  0  1   0   0   0  0
116  0  0   1  41   0  0
117  1  0   0   0   0  0
118  0  0   3   0   0  1
119  0  0   0  42   0  0
120  2  0   0   0   0  0
121  0  1   0   0   0  0
122  0  0   1  43   0  0
123  1  0   0   0   0  0
124  0  0   3   0   0  1
125  0  0   0  44   0  0
126  2  0   0   0   0  0
127  0  1   0   0   0  0
128  0  0   1  45   0  0
129  1  0   0   0   0  0
130  0  0   3   0   0  1
131  0  0   0  46   0  0
132  2  0   0   0   0  0
133  0  1   0   0   0  0
134  0  0   1  47   0  0
135  1  0   0   0   0  0
136  0  0   3   0   0  1
137  0  0   0  48   0  0
138  2  0   0   0   0  0
139  0  1   0   0   0  0
140  0  0   1  49   0  0
141  1  0   0   0   0  0
142  0  0   3   0   0  1
143  0  0   0  50   0  0
144  2  0   0   0   0  0
145  0  1   0   0   0  0
146  0  0   1  51   0  0
147  1  0   0   0   0  0
148  0  0   3   0   0  1
149  0  0   0  52   0  0
150  2  0   0   0   0  0
151  0  1   0   0   0  0
152  0  0   1  53   0  0
153  1  0   0   0   0  0
154  0  0   3   0   0  1
155  0  0   0  54   0  0
156  2  0   0   0   0  0
157  0  1   0   0   0  0
158  0  0   1  55   0  0
159  1  0   0   0   0  0
160  0  0   3   0   0  1
161  0  0   0  56   0  0
162  2  0   0   0   0  0
163  0  1   0   0   0  0
164  0  0   1  57   0  0
165  1  0   0   0   0  0
166  0  0   3   0   0  1
167  0  0   0  58   0  0
168  2  0   0   0   0  0
169  0  1   0   0   0  0
170  0  0   1  59   0  0
171  1  0   0   0   0  0
172  0  0   3   0   0  1
173  0  0   0  60   0  0
174  2  0   0   0   0  0
175  0  1   0   0   0  0
176  0  0   1  61   0  0
177  1  0   0   0   0  0
178  0  0   3   0   0  1
179  0  0   0  62   0  0
180  2  0   0   0   0  0
181  0  1   0   0   0  0
182  0  0   1  63   0  0
183  1  0   0   0   0  0
184  0  0   3   0   0  1
185  0  0   0  64   0  0
186  2  0   0   0   0  0
187  0  1   0   0   0  0
188  0  0   1  65   0  0
189  1  0   0   0   0  0
190  0  0   3   0   0  1
191  0  0   0  66   0  0
192  2  0   0   0   0  0
193  0  1   0   0   0  0
194  0  0   1  67   0  0
195  1  0   0   0   0  0
196  0  0   3   0   0  1
197  0  0   0  68   0  0
198  2  0   0   0   0  0
199  0  1   0   0   0  0
200  0  0   1  69   0  0
201  1  0   0   0   0  0
202  0  0   3   0   0  1
203  0  0   0  70   0  0
204  2  0   0   0   0  0
205  0  1   0   0   0  0
206  0  0   1  71   0  0
207  1  0   0   0   0  0
208  0  0   3   0   0  1
209  0  0   0  72   0  0
210  2  0   0   0   0  0
211  0  1   0   0   0  0
212  0  0   1  73   0  0
213  1  0   0   0   0  0
214  0  0   3   0   0  1
215  0  0   0  74   0  0
216  2  0   0   0   0  0
217  0  1   0   0   0  0
218  0  0   1  75   0  0
219  1  0   0   0   0  0
220  0  0   3   0   0  1
221  0  0   0  76   0  0
222  2  0   0   0   0  0
223  0  1   0   0   0  0
224  0  0   1  77   0  0
225  1  0   0   0   0  0
226  0  0   3   0   0  1
227  0  0   0  78   0  0
228  2  0   0   0   0  0
229  0  1   0   0   0  0
230  0  0   1  79   0  0
231  1  0   0   0   0  0
232  0  0   3   0   0  1
233  0  0   0  80   0  0
234  2  0   0   0   0  0
235  0  1   0   0   0  0
236  0  0   1  81   0  0
237  1  0   0   0   0  0
238  0  0   3   0   0  1
239  0  0   0  82   0  0
240  2  0   0   0   0  0
241  0  1   0   0   0  0
242  0  0   1  83   0  0
243  1  0   0   0   0  0
244  0  0   3   0   0  1
245  0  0   0  84   0  0
246  2  0   0   0   0  0
247  0  1   0   0   0  0
248  0  0   1  85   0  0
249  1  0   0   0   0  0
250  0  0   3   0   0  1
251  0  0   0  86   0  0
252  2  0   0   0   0  0
253  0  1   0   0   0  0
254  0  0   1  87   0  0
255  1  0   0   0   0  0
256  0  0   3   0   0  1
257  0  0   0  88   0  0
258  2  0   0   0   0  0
259  0  1   0   0   0  0
260  0  0   1  89   0  0
261  1  0   0   0   0  0
262  0  0   3   0   0  1
263  0  0   0  90   0  0
264  2  0   0   0   0  0
265  0  1   0   0   0  0
266  0  0   1  91   0  0
267  1  0   0   0   0  0
268  0  0   3   0   0  1
269  0  0   0  92   0  0
270  2  0   0   0   0  0
271  0  1   0   0   0  0
272  0  0   1  93   0  0
273  1  0   0   0   0  0
274  0  0   3   0   0  1
275  0  0   0  94   0  0
276  2  0   0   0   0  0
277  0  1   0   0   0  0
278  0  0   1  95   0  0
279  1  0   0   0   0  0
280  0  0   3   0   0  1
281  0  0   0  96   0  0
282  2  0   0   0   0  0
283  0  1   0   0   0  0
284  0  0   1  97   0  0
285  1  0   0   0   0  0
286  0  0   3   0   0  1
287  0  0   0  98   0  0
288  2  0   0   0   0  0
289  0  1   0   0   0  0
290  0  0   1  99   0  0
291  1  0   0   0   0  0
292  0  0   3   0   0  1
293  0  0   0 100   0  0
294  2  0   0   0   0  0
295  0  1   0   0   0  0
296  0  0   1  98   0  0
297  1  0   0   0   0  0
298  0  0   3   0   0  1
299  0  0   0  97   0  0
300  2  0   0   0   0  0
301  0  1   0   0   0  0
302  0  0   1  96   0  0
303  1  0   0   0   0  0
304  0  0   3   0   0  1
305  0  0   0  95   0  0
306  2  0   0   0   0  0
307  0  1   0   0   0  0
308  0  0   1  94   0  0
309  1  0   0   0   0  0
310  0  0   3   0   0  1
311  0  0   0  93   0  0
312  2  0   0   0   0  0
313  0  1   0   0   0  0
314  0  0   1  92   0  0
315  1  0   0   0   0  0
316  0  0   3   0   0  1
317  0  0   0  91   0  0
318  2  0   0   0   0  0
319  0  1   0   0   0  0
320  0  0   1  90   0  0
321  1  0   0   0   0  0
322  0  0   3   0   0  1
323  0  0   0  89   0  0
324  2  0   0   0   0  0
325  0  1   0   0   0  0
326  0  0   1  88   0  0
327  1  0   0   0   0  0
328  0  0   3   0   0  1
329  0  0   0  87   0  0
330  2  0   0   0   0  0
331  0  1   0   0   0  0
332  0  0   1  86   0  0
333  1  0   0   0   0  0
334  0  0   3   0   0  1
335  0  0   0  85   0  0
336  2  0   0   0   0  0
337  0  1   0   0   0  0
338  0  0   1  84   0  0
339  1  0   0   0   0  0
340  0  0   3   0   0  1
341  0  0   0  83   0  0
342  2  0   0   0   0  0
343  0  1   0   0   0  0
344  0  0   1  82   0  0
345  1  0   0   0   0  0
346  0  0   3   0   0  1
347  0  0   0  81   0  0
348  2  0   0   0   0  0
349  0  1   0   0   0  0
350  0  0   1  80   0  0
351  1  0   0   0   0  0
352  0  0   3   0   0  1
353  0  0   0  79   0  0
354  2  0   0   0   0  0
355  0  1   0   0   0  0
356  0  0   1  78   0  0
357  1  0   0   0   0  0
358  0  0   3   0   0  1
359  0  0   0  77   0  0
360  2  0   0   0   0  0
361  0  1   0   0   0  0
362  0  0   1  76   0  0
363  1  0   0   0   0  0
364  0  0   3   0   0  1
365  0  0   0  75   0  0
366  2  0   0   0   0  0
367  0  1   0   0   0  0
368  0  0   1  74   0  0
369  1  0   0   0   0  0
370  0  0   3   0   0  1
371  0  0   0  73   0  0
372  2  0   0   0   0  0
373  0  1   0   0   0  0
374  0  0   1  72   0  0
375  1  0   0   0   0  0
376  0  0   3   0   0  1
377  0  0   0  71   0  0
378  2  0   0   0   0  0
379  0  1   0   0   0  0
380  0  0   1  70   0  0
381  1  0   0   0   0  0
382  0  0   3   0   0  1
383  0  0   0  69   0  0
384  2  0   0   0   0  0
385  0  1   0   0   0  0
386  0  0   1  68   0  0
387  1  0   0   0   0  0
388  0  0   3   0   0  1
389  0  0   0  67   0  0
390  2  0   0   0   0  0
391  0  1   0   0   0  0
392  0  0   1  66   0  0
393  1  0   0   0   0  0
394  0  0   3   0   0  1
395  0  0   0  65   0  0
396  2  0   0   0   0  0
397  0  1   0   0   0  0
398  0  0   1  64   0  0
399  1  0   0   0   0  0
400  0  0   3   0   0  1
401  0  0   0  63   0  0
402  2  0   0   0   0  0
403  0  1   0   0   0  0
404  0  0   1  62   0  0
405  1  0   0   0   0  0
406  0  0   3   0   0  1
407  0  0   0  61   0  0
408  2  0   0   0   0  0
409  0  1   0   0   0  0
410  0  0   1  60   0  0
411  1  0   0   0   0  0
412  0  0   3   0   0  1
413  0  0   0  59   0  0
414  2  0   0   0   0  0
415  0  1   0   0   0  0
416  0  0   1  58   0  0
417  1  0   0   0   0  0
418  0  0   3   0   0  1
419  0  0   0  57   0  0
420  2  0   0   0   0  0
421  0  1   0   0   0  0
422  0  0   1  56   0  0
423  1  0   0   0   0  0
424  0  0   3   0   0  1
425  0  0   0  55   0  0
426  2  0   0   0   0  0
427  0  1   0   0   0  0
428  0  0   1  54   0  0
429  1  0   0   0   0  0
430  0  0   3   0   0  1
431  0  0   0  53   0  0
432  2  0   0   0   0  0
433  0  1   0   0   0  0
434  0  0   1  52   0  0
435  1  0   0   0   0  0
436  0  0   3   0   0  1
437  0  0   0  51   0  0
438  2  0   0   0   0  0
439  0  1   0   0   0  0
440  0  0   1  50   0  0
441  1  0   0   0   0  0
442  0  0   3   0   0  1
443  0  0   0  49   0  0
444  2  0   0   0   0  0
445  0  1   0   0   0  0
446  0  0   1  48   0  0
447  1  0   0   0   0  0
448  0  0   3   0   0  1
449  0  0   0  47   0  0
450  2  0   0   0   0  0
451  0  1   0   0   0  0
452  0  0   1  46   0  0
453  1  0   0   0   0  0
454  0  0   3   0   0  1
455  0  0   0  45   0  0
456  2  0   0   0   0  0
457  0  1   0   0   0  0
458  0  0   1  44   0  0
459  1  0   0   0   0  0
460  0  0   3   0   0  1
461  0  0   0  43   0  0
462  2  0   0   0   0  0
463  0  1   0   0   0  0
464  0  0   1  42   0  0
465  1  0   0   0   0  0
466  0  0   3   0   0  1
467  0  0   0  41   0  0
468  2  0   0   0   0  0
469  0  1   0   0   0  0
470  0  0   1  40   0  0
471  1  0   0   0   0  0
472  0  0   3   0   0  1
473  0  0   0  39   0  0
474  2  0   0   0   0  0
475  0  1   0   0   0  0
476  0  0   1  38   0  0
477  1  0   0   0   0  0
478  0  0   3   0   0  1
479  0  0   0  37   0  0
480  2  0   0   0   0  0
481  0  1   0   0   0  0
482  0  0   1  36   0  0
483  1  0   0   0   0  0
484  0  0   3   0   0  1
485  0  0   0  35   0  0
486  2  0   0   0   0  0
487  0  1   0   0   0  0
488  0  0   1  34   0  0
489  1  0   0   0   0  0
490  0  0   3   0   0  1
491  0  0   0  33   0  0
492  2  0   0   0   0  0
493  0  1   0   0   0  0
494  0  0   1  32   0  0
495  1  0   0   0   0  0
496  0  0   3   0   0  1
497  0  0   0  31   0  0
498  2  0   0   0   0  0
499  0  1   0   0   0  0
500  0  0   1  30   0  0
501  1  0   0   0   0  0
502  0  0   3   0   0  1
503  0  0   0  29   0  0
504  2  0   0   0   0  0
505  0  1   0   0   0  0
506  0  0   1  28   0  0
507  1  0   0   0   0  0
508  0  0   3   0   0  1
509  0  0   0  27   0  0
510  2  0   0   0   0  0
511  0  1   0   0   0  0
512  0  0   1  26   0  0
513  1  0   0   0   0  0
514  0  0   3   0   0  1
515  0  0   0  25   0  0
516  2  0   0   0   0  0
517  0  1   0   0   0  0
518  0  0   1  24   0  0
519  1  0   0   0   0  0
520  0  0   3   0   0  1
521  0  0   0  23   0  0
522  2  0   0   0   0  0
523  0  1   0   0   0  0
524  0  0   1  22   0  0
525  1  0   0   0   0  0
526  0  0   3   0   0  1
527  0  0   0  21   0  0
528  2  0   0   0   0  0
529  0  1   0   0   0  0
530  0  0   1  20   0  0
531  1  0   0   0   0  0
532  0  0   3   0   0  1
533  0  0   0  19   0  0
534  2  0   0   0   0  0
535  0  1   0   0   0  0
536  0  0   1  18   0  0
537  1  0   0   0   0  0
538  0  0   3   0   0  1
539  0  0   0  17   0  0
540  2  0   0   0   0  0
541  0  1   0   0   0  0
542  0  0   1  16   0  0
543  1  0   0   0   0  0
544  0  0   3   0   0  1
545  0  0   0  15   0  0
546  2  0   0   0   0  0
547  0  1   0   0   0  0
548  0  0   1  14   0  0
549  1  0   0   0   0  0
550  0  0   3   0   0  1
551  0  0   0  13   0  0
552  2  0   0   0   0  0
553  0  1   0   0   0  0
554  0  0   1  12   0  0
555  1  0   0   0   0  0
556  0  0   3   0   0  1
557  0  0   0  11   0  0
558  2  0   0   0   0  0
559  0  1   0   0   0  0
560  0  0   1  10   0  0
561  1  0   0   0   0  0
562  0  0   3   0   0  1
563  0  0   0   9   0  0
564  2  0   0   0   0  0
565  0  1   0   0   0  0
566  0  0   1   8   0  0
567  1  0   0   0   0  0
568  0  0   3   0   0  1
569  0  0   0   7   0  0
570  2  0   0   0   0  0
571  0  1   0   0   0  0
572  0  0   1   6   0  0
573  1  0   0   0   0  0
574  0  0   3   0   0  1
575  0  0   0   5   0  0
576  2  0   0   0   0  0

# Format of RF events:
# id amplitude mag_id phase_id delay freq phase
# ..        Hz   ....     ....    us   Hz   rad
[RF]
1          250 1 2 0 0 0

# Format of trapezoid gradients:
# id amplitude rise flat fall delay
# ..      Hz/m   us   us   us    us
[TRAP]
 1     -74537.8  50 2900  50   0
 2     -73959.9  50 2900  50   0
 3      68181.8  50 6400  50   0
 4      73959.9  50 2900  50   0
 5     -72419.1  50 2900  50   0
 6      72419.1  50 2900  50   0
 7     -70878.3  50 2900  50   0
 8      70878.3  50 2900  50   0
 9     -69337.4  50 2900  50   0
10      69337.4  50 2900  50   0
11     -67796.6  50 2900  50   0
12      67796.6  50 2900  50   0
13     -66255.8  50 2900  50   0
14      66255.8  50 2900  50   0
15     -64714.9  50 2900  50   0
16      64714.9  50 2900  50   0
17     -63174.1  50 2900  50   0
18      63174.1  50 2900  50   0
19     -61633.3  50 2900  50   0
20      61633.3  50 2900  50   0
21     -60092.4  50 2900  50   0
22      60092.4  50 2900  50   0
23     -58551.6  50 2900  50   0
24      58551.6  50 2900  50   0
25     -57010.8  50 2900  50   0
26      57010.8  50 2900  50   0
27       -55470  50 2900  50   0
28        55470  50 2900  50   0
29     -53929.1  50 2900  50   0
30      53929.1  50 2900  50   0
31     -52388.3  50 2900  50   0
32      52388.3  50 2900  50   0
33     -50847.5  50 2900  50   0
34      50847.5  50 2900  50   0
35     -49306.6  50 2900  50   0
36      49306.6  50 2900  50   0
37     -47765.8  50 2900  50   0
38      47765.8  50 2900  50   0
39       -46225  50 2900  50   0
40        46225  50 2900  50   0
41     -44684.1  50 2900  50   0
42      44684.1  50 2900  50   0
43     -43143.3  50 2900  50   0
44      43143.3  50 2900  50   0
45     -41602.5  50 2900  50   0
46      41602.5  50 2900  50   0
47     -40061.6  50 2900  50   0
48      40061.6  50 2900  50   0
49     -38520.8  50 2900  50   0
50      38520.8  50 2900  50   0
51       -36980  50 2900  50   0
52        36980  50 2900  50   0
53     -35439.1  50 2900  50   0
54      35439.1  50 2900  50   0
55     -33898.3  50 2900  50   0
56      33898.3  50 2900  50   0
57     -32357.5  50 2900  50   0
58      32357.5  50 2900  50   0
59     -30816.6  50 2900  50   0
60      30816.6  50 2900  50   0
61     -29275.8  50 2900  50   0
62      29275.8  50 2900  50   0
63       -27735  50 2900  50   0
64        27735  50 2900  50   0
65     -26194.1  50 2900  50   0
66      26194.1  50 2900  50   0
67     -24653.3  50 2900  50   0
68      24653.3  50 2900  50   0
69     -23112.5  50 2900  50   0
70      23112.5  50 2900  50   0
71     -21571.6  50 2900  50   0
72      21571.6  50 2900  50   0
73     -20030.8  50 2900  50   0
74      20030.8  50 2900  50   0
75       -18490  50 2900  50   0
76        18490  50 2900  50   0
77     -16949.2  50 2900  50   0
78      16949.2  50 2900  50   0
79     -15408.3  50 2900  50   0
80      15408.3  50 2900  50   0
81     -13867.5  50 2900  50   0
82      13867.5  50 2900  50   0
83     -12326.7  50 2900  50   0
84      12326.7  50 2900  50   0
85     -10785.8  50 2900  50   0
86      10785.8  50 2900  50   0
87     -9244.99  50 2900  50   0
88      9244.99  50 2900  50   0
89     -7704.16  50 2900  50   0
90      7704.16  50 2900  50   0
91     -6163.33  50 2900  50   0
92      6163.33  50 2900  50   0
93      -4622.5  50 2900  50   0
94       4622.5  50 2900  50   0
95     -3081.66  50 2900  50   0
96      3081.66  50 2900  50   0
97     -1540.83  50 2900  50   0
98      1540.83  50 2900  50   0
99            0  50 2900  50   0
100           -0  50 2900  50   0

# Format of ADC events:
# id num dwell delay freq phase
# ..  ..    ns    us   Hz   rad
[ADC]
1 96 66667 50 0 0

# Format of delays:
# id delay (us)
[DELAYS]
1 3260
2 2986240

# Sequence Shapes
[SHAPES]

shape_id 1
num_samples 1000
1
0
0
997

shape_id 2
num_samples 1000
0
0
998

