# Pulseq sequence file
# Created by MATLAB mr toolbox

[VERSION]
major 1
minor 2
revision 0

# Format of blocks:
#  #  D RF  GX  GY  GZ ADC
[BLOCKS]
  1  0  1   0   0   0  0
  2  0  0   1   2   0  0
  3  1  0   0   0   0  0
  4  0  0   3   0   0  1
  5  0  0   0   4   0  0
  6  2  0   0   0   0  0
  7  0  1   0   0   0  0
  8  0  0   1   5   0  0
  9  1  0   0   0   0  0
 10  0  0   3   0   0  1
 11  0  0   0   6   0  0
 12  2  0   0   0   0  0
 13  0  1   0   0   0  0
 14  0  0   1   7   0  0
 15  1  0   0   0   0  0
 16  0  0   3   0   0  1
 17  0  0   0   8   0  0
 18  2  0   0   0   0  0
 19  0  1   0   0   0  0
 20  0  0   1   9   0  0
 21  1  0   0   0   0  0
 22  0  0   3   0   0  1
 23  0  0   0  10   0  0
 24  2  0   0   0   0  0
 25  0  1   0   0   0  0
 26  0  0   1  11   0  0
 27  1  0   0   0   0  0
 28  0  0   3   0   0  1
 29  0  0   0  12   0  0
 30  2  0   0   0   0  0
 31  0  1   0   0   0  0
 32  0  0   1  13   0  0
 33  1  0   0   0   0  0
 34  0  0   3   0   0  1
 35  0  0   0  14   0  0
 36  2  0   0   0   0  0
 37  0  1   0   0   0  0
 38  0  0   1  15   0  0
 39  1  0   0   0   0  0
 40  0  0   3   0   0  1
 41  0  0   0  16   0  0
 42  2  0   0   0   0  0
 43  0  1   0   0   0  0
 44  0  0   1  17   0  0
 45  1  0   0   0   0  0
 46  0  0   3   0   0  1
 47  0  0   0  18   0  0
 48  2  0   0   0   0  0
 49  0  1   0   0   0  0
 50  0  0   1  19   0  0
 51  1  0   0   0   0  0
 52  0  0   3   0   0  1
 53  0  0   0  20   0  0
 54  2  0   0   0   0  0
 55  0  1   0   0   0  0
 56  0  0   1  21   0  0
 57  1  0   0   0   0  0
 58  0  0   3   0   0  1
 59  0  0   0  22   0  0
 60  2  0   0   0   0  0
 61  0  1   0   0   0  0
 62  0  0   1  23   0  0
 63  1  0   0   0   0  0
 64  0  0   3   0   0  1
 65  0  0   0  24   0  0
 66  2  0   0   0   0  0
 67  0  1   0   0   0  0
 68  0  0   1  25   0  0
 69  1  0   0   0   0  0
 70  0  0   3   0   0  1
 71  0  0   0  26   0  0
 72  2  0   0   0   0  0
 73  0  1   0   0   0  0
 74  0  0   1  27   0  0
 75  1  0   0   0   0  0
 76  0  0   3   0   0  1
 77  0  0   0  28   0  0
 78  2  0   0   0   0  0
 79  0  1   0   0   0  0
 80  0  0   1  29   0  0
 81  1  0   0   0   0  0
 82  0  0   3   0   0  1
 83  0  0   0  30   0  0
 84  2  0   0   0   0  0
 85  0  1   0   0   0  0
 86  0  0   1  31   0  0
 87  1  0   0   0   0  0
 88  0  0   3   0   0  1
 89  0  0   0  32   0  0
 90  2  0   0   0   0  0
 91  0  1   0   0   0  0
 92  0  0   1  33   0  0
 93  1  0   0   0   0  0
 94  0  0   3   0   0  1
 95  0  0   0  34   0  0
 96  2  0   0   0   0  0
 97  0  1   0   0   0  0
 98  0  0   1  35   0  0
 99  1  0   0   0   0  0
100  0  0   3   0   0  1
101  0  0   0  36   0  0
102  2  0   0   0   0  0
103  0  1   0   0   0  0
104  0  0   1  37   0  0
105  1  0   0   0   0  0
106  0  0   3   0   0  1
107  0  0   0  38   0  0
108  2  0   0   0   0  0
109  0  1   0   0   0  0
110  0  0   1  39   0  0
111  1  0   0   0   0  0
112  0  0   3   0   0  1
113  0  0   0  40   0  0
114  2  0   0   0   0  0
115  0  1   0   0   0  0
116  0  0   1  41   0  0
117  1  0   0   0   0  0
118  0  0   3   0   0  1
119  0  0   0  42   0  0
120  2  0   0   0   0  0
121  0  1   0   0   0  0
122  0  0   1  43   0  0
123  1  0   0   0   0  0
124  0  0   3   0   0  1
125  0  0   0  44   0  0
126  2  0   0   0   0  0
127  0  1   0   0   0  0
128  0  0   1  45   0  0
129  1  0   0   0   0  0
130  0  0   3   0   0  1
131  0  0   0  46   0  0
132  2  0   0   0   0  0
133  0  1   0   0   0  0
134  0  0   1  47   0  0
135  1  0   0   0   0  0
136  0  0   3   0   0  1
137  0  0   0  48   0  0
138  2  0   0   0   0  0
139  0  1   0   0   0  0
140  0  0   1  49   0  0
141  1  0   0   0   0  0
142  0  0   3   0   0  1
143  0  0   0  50   0  0
144  2  0   0   0   0  0
145  0  1   0   0   0  0
146  0  0   1  51   0  0
147  1  0   0   0   0  0
148  0  0   3   0   0  1
149  0  0   0  52   0  0
150  2  0   0   0   0  0
151  0  1   0   0   0  0
152  0  0   1  50   0  0
153  1  0   0   0   0  0
154  0  0   3   0   0  1
155  0  0   0  49   0  0
156  2  0   0   0   0  0
157  0  1   0   0   0  0
158  0  0   1  48   0  0
159  1  0   0   0   0  0
160  0  0   3   0   0  1
161  0  0   0  47   0  0
162  2  0   0   0   0  0
163  0  1   0   0   0  0
164  0  0   1  46   0  0
165  1  0   0   0   0  0
166  0  0   3   0   0  1
167  0  0   0  45   0  0
168  2  0   0   0   0  0
169  0  1   0   0   0  0
170  0  0   1  44   0  0
171  1  0   0   0   0  0
172  0  0   3   0   0  1
173  0  0   0  43   0  0
174  2  0   0   0   0  0
175  0  1   0   0   0  0
176  0  0   1  42   0  0
177  1  0   0   0   0  0
178  0  0   3   0   0  1
179  0  0   0  41   0  0
180  2  0   0   0   0  0
181  0  1   0   0   0  0
182  0  0   1  40   0  0
183  1  0   0   0   0  0
184  0  0   3   0   0  1
185  0  0   0  39   0  0
186  2  0   0   0   0  0
187  0  1   0   0   0  0
188  0  0   1  38   0  0
189  1  0   0   0   0  0
190  0  0   3   0   0  1
191  0  0   0  37   0  0
192  2  0   0   0   0  0
193  0  1   0   0   0  0
194  0  0   1  36   0  0
195  1  0   0   0   0  0
196  0  0   3   0   0  1
197  0  0   0  35   0  0
198  2  0   0   0   0  0
199  0  1   0   0   0  0
200  0  0   1  34   0  0
201  1  0   0   0   0  0
202  0  0   3   0   0  1
203  0  0   0  33   0  0
204  2  0   0   0   0  0
205  0  1   0   0   0  0
206  0  0   1  32   0  0
207  1  0   0   0   0  0
208  0  0   3   0   0  1
209  0  0   0  31   0  0
210  2  0   0   0   0  0
211  0  1   0   0   0  0
212  0  0   1  30   0  0
213  1  0   0   0   0  0
214  0  0   3   0   0  1
215  0  0   0  29   0  0
216  2  0   0   0   0  0
217  0  1   0   0   0  0
218  0  0   1  28   0  0
219  1  0   0   0   0  0
220  0  0   3   0   0  1
221  0  0   0  27   0  0
222  2  0   0   0   0  0
223  0  1   0   0   0  0
224  0  0   1  26   0  0
225  1  0   0   0   0  0
226  0  0   3   0   0  1
227  0  0   0  25   0  0
228  2  0   0   0   0  0
229  0  1   0   0   0  0
230  0  0   1  24   0  0
231  1  0   0   0   0  0
232  0  0   3   0   0  1
233  0  0   0  23   0  0
234  2  0   0   0   0  0
235  0  1   0   0   0  0
236  0  0   1  22   0  0
237  1  0   0   0   0  0
238  0  0   3   0   0  1
239  0  0   0  21   0  0
240  2  0   0   0   0  0
241  0  1   0   0   0  0
242  0  0   1  20   0  0
243  1  0   0   0   0  0
244  0  0   3   0   0  1
245  0  0   0  19   0  0
246  2  0   0   0   0  0
247  0  1   0   0   0  0
248  0  0   1  18   0  0
249  1  0   0   0   0  0
250  0  0   3   0   0  1
251  0  0   0  17   0  0
252  2  0   0   0   0  0
253  0  1   0   0   0  0
254  0  0   1  16   0  0
255  1  0   0   0   0  0
256  0  0   3   0   0  1
257  0  0   0  15   0  0
258  2  0   0   0   0  0
259  0  1   0   0   0  0
260  0  0   1  14   0  0
261  1  0   0   0   0  0
262  0  0   3   0   0  1
263  0  0   0  13   0  0
264  2  0   0   0   0  0
265  0  1   0   0   0  0
266  0  0   1  12   0  0
267  1  0   0   0   0  0
268  0  0   3   0   0  1
269  0  0   0  11   0  0
270  2  0   0   0   0  0
271  0  1   0   0   0  0
272  0  0   1  10   0  0
273  1  0   0   0   0  0
274  0  0   3   0   0  1
275  0  0   0   9   0  0
276  2  0   0   0   0  0
277  0  1   0   0   0  0
278  0  0   1   8   0  0
279  1  0   0   0   0  0
280  0  0   3   0   0  1
281  0  0   0   7   0  0
282  2  0   0   0   0  0
283  0  1   0   0   0  0
284  0  0   1   6   0  0
285  1  0   0   0   0  0
286  0  0   3   0   0  1
287  0  0   0   5   0  0
288  2  0   0   0   0  0

# Format of RF events:
# id amplitude mag_id phase_id delay freq phase
# ..        Hz   ....     ....    us   Hz   rad
[RF]
1          250 1 2 0 0 0

# Format of trapezoid gradients:
# id amplitude rise flat fall delay
# ..      Hz/m   us   us   us    us
[TRAP]
 1     -37268.9  50 2900  50   0
 2       -36980  50 2900  50   0
 3      34090.9  50 6400  50   0
 4        36980  50 2900  50   0
 5     -35439.1  50 2900  50   0
 6      35439.1  50 2900  50   0
 7     -33898.3  50 2900  50   0
 8      33898.3  50 2900  50   0
 9     -32357.5  50 2900  50   0
10      32357.5  50 2900  50   0
11     -30816.6  50 2900  50   0
12      30816.6  50 2900  50   0
13     -29275.8  50 2900  50   0
14      29275.8  50 2900  50   0
15       -27735  50 2900  50   0
16        27735  50 2900  50   0
17     -26194.1  50 2900  50   0
18      26194.1  50 2900  50   0
19     -24653.3  50 2900  50   0
20      24653.3  50 2900  50   0
21     -23112.5  50 2900  50   0
22      23112.5  50 2900  50   0
23     -21571.6  50 2900  50   0
24      21571.6  50 2900  50   0
25     -20030.8  50 2900  50   0
26      20030.8  50 2900  50   0
27       -18490  50 2900  50   0
28        18490  50 2900  50   0
29     -16949.2  50 2900  50   0
30      16949.2  50 2900  50   0
31     -15408.3  50 2900  50   0
32      15408.3  50 2900  50   0
33     -13867.5  50 2900  50   0
34      13867.5  50 2900  50   0
35     -12326.7  50 2900  50   0
36      12326.7  50 2900  50   0
37     -10785.8  50 2900  50   0
38      10785.8  50 2900  50   0
39     -9244.99  50 2900  50   0
40      9244.99  50 2900  50   0
41     -7704.16  50 2900  50   0
42      7704.16  50 2900  50   0
43     -6163.33  50 2900  50   0
44      6163.33  50 2900  50   0
45      -4622.5  50 2900  50   0
46       4622.5  50 2900  50   0
47     -3081.66  50 2900  50   0
48      3081.66  50 2900  50   0
49     -1540.83  50 2900  50   0
50      1540.83  50 2900  50   0
51            0  50 2900  50   0
52           -0  50 2900  50   0

# Format of ADC events:
# id num dwell delay freq phase
# ..  ..    ns    us   Hz   rad
[ADC]
1 48 133333 50 0 0

# Format of delays:
# id delay (us)
[DELAYS]
1 3260
2 2986240

# Sequence Shapes
[SHAPES]

shape_id 1
num_samples 1000
1
0
0
997

shape_id 2
num_samples 1000
0
0
998

