# Pulseq sequence file
# Created by PyPulseq

[VERSION]
major 1
minor 2
revision 0

[DEFINITIONS]
FOV 1 1 0.008 
Name gre 

# Format of blocks:
#  #  D RF  GX  GY  GZ ADC
[BLOCKS]
1  1  0   0   0   0  0
2  0  1   0   0   0  0
3  0  0   0   0   0  1

# Format of RF events:
# id amplitude mag_id phase_id delay freq phase
# ..        Hz   ....     ....    us   Hz   rad
[RF]
1      987.456 1 2 500 0 0

# Format of ADC events:
# id num dwell delay freq phase
# ..  ..    ns    us   Hz   rad
[ADC]
1 128 156250 20 0 0

# Format of delays:
# id delay (us)
[DELAYS]
1 10500

# Sequence Shapes
[SHAPES]

shape_id 1
num_samples 1020
2e-08
1.4e-07
3.8e-07
7.3e-07
1.22e-06
1.82e-06
2.55e-06
3.39e-06
4.37e-06
5.46e-06
6.69e-06
8.03e-06
9.5e-06
1.11e-05
1.282e-05
1.467e-05
1.665e-05
1.874e-05
2.096e-05
2.331e-05
2.579e-05
2.838e-05
3.111e-05
3.394e-05
3.692e-05
4e-05
4.321e-05
4.655e-05
4.999e-05
5.357e-05
5.724e-05
6.105e-05
6.497e-05
6.9e-05
7.315e-05
7.74e-05
8.176e-05
8.624e-05
9.083e-05
9.55e-05
0.0001003
0.00010518
0.00011018
0.00011526
0.00012044
0.00012572
0.00013109
0.00013655
0.00014209
0.00014771
0.00015343
0.00015921
0.00016508
0.00017102
0.00017703
0.0001831
0.00018926
0.00019546
0.00020173
0.00020805
0.00021443
0.00022085
0.00022734
0.00023385
0.00024041
0.00024701
0.00025364
0.0002603
0.00026699
0.00027369
0.00028043
0.00028717
0.00029393
0.00030069
0.00030746
0.00031423
0.00032099
0.00032775
0.0003345
0.00034122
0.00034792
0.00035461
0.00036127
0.00036788
0.00037446
0.00038101
0.0003875
0.00039394
0.00040033
0.00040666
0.00041292
0.00041911
0.00042524
0.00043128
0.00043723
0.00044311
0.00044889
0.00045457
0.00046015
0.00046563
0.00047099
0.00047623
0.00048136
0.00048636
0.00049123
0.00049597
0.00050056
0.000505
0.00050931
0.00051344
0.00051744
0.00052125
0.0005249
0.00052838
0.00053167
0.00053479
0.00053771
0.00054044
0.00054297
0.00054531
0.00054742
0.00054933
0.00055102
0.00055249
0.00055374
0.00055474
0.00055551
0.00055605
0.00055634
0.00055638
0.00055616
0.00055568
0.00055495
0.00055393
0.00055266
0.00055111
0.00054927
0.00054715
0.00054473
0.00054204
0.00053903
0.00053573
0.00053212
0.00052821
0.00052397
0.00051943
0.00051455
0.00050937
0.00050384
0.00049799
0.0004918
0.00048527
0.0004784
0.00047118
0.00046363
0.0004557
0.00044744
0.0004388
0.00042982
0.00042046
0.00041074
0.00040065
0.00039019
0.00037936
0.00036814
0.00035655
0.00034458
0.00033222
0.00031948
0.00030635
0.00029283
0.00027892
0.00026461
0.00024992
0.00023482
0.00021933
0.00020344
0.00018715
0.00017046
0.00015336
0.00013586
0.00011797
9.966e-05
8.094e-05
6.183e-05
4.231e-05
2.238e-05
2.04e-06
-1.869e-05
-3.985e-05
-6.14e-05
-8.336e-05
-0.00010572
-0.00012849
-0.00015167
-0.00017524
-0.00019923
-0.0002236
-0.00024839
-0.00027356
-0.00029915
-0.00032512
-0.00035149
-0.00037825
-0.00040541
-0.00043295
-0.00046088
-0.00048919
-0.00051789
-0.00054697
-0.00057643
-0.00060626
-0.00063646
-0.00066703
-0.00069798
-0.00072927
-0.00076094
-0.00079295
-0.00082533
-0.00085805
-0.00089111
-0.00092452
-0.00095827
-0.00099235
-0.00102676
-0.00106149
-0.00109655
-0.00113192
-0.00116761
-0.00120359
-0.00123989
-0.00127647
-0.00131336
-0.00135052
-0.00138797
-0.0014257
-0.00146368
-0.00150195
-0.00154047
-0.00157923
-0.00161825
-0.00165751
-0.00169699
-0.00173672
-0.00177666
-0.00181682
-0.00185718
-0.00189775
-0.00193852
-0.00197946
0.0020206
0.0020619
0.00210337
0.00214501
0.0021868
0.00222872
0.00227079
0.00231299
0.00235532
0.00239774
0.00244029
0.00248292
0.00252566
0.00256847
0.00261136
0.00265431
0.00269732
0.00274039
0.00278349
0.00282662
0.00286978
0.00291296
0.00295613
0.00299932
0.00304249
0.00308564
0.00312876
0.00317185
0.00321488
0.00325787
0.00330078
0.00334363
0.0033864
0.00342907
0.00347164
0.0035141
0.00355644
0.00359865
0.00364073
0.00368266
0.00372444
0.00376603
0.00380747
0.00384871
0.00388977
0.00393061
0.00397125
0.00401166
0.00405185
0.00409178
0.00413147
0.00417091
0.00421006
0.00424894
0.00428754
0.00432583
0.00436382
0.00440148
0.00443884
0.00447585
0.00451251
0.00454882
0.00458478
0.00462035
0.00465555
0.00469036
0.00472476
0.00475876
0.00479235
0.0048255
0.00485822
0.0048905
0.00492232
0.00495368
0.00498458
0.00501499
0.00504492
0.00507434
0.00510328
0.00513168
0.00515959
0.00518694
0.00521377
0.00524006
0.00526578
0.00529095
0.00531555
0.00533958
0.00536301
0.00538586
0.00540811
0.00542976
0.00545078
0.00547119
0.00549097
0.00551012
0.00552862
0.00554648
0.00556369
0.00558022
0.0055961
0.0056113
0.00562582
0.00563965
0.00565279
0.00566525
0.00567698
0.00568802
0.00569833
0.00570794
0.00571681
0.00572496
0.00573237
0.00573904
0.00574497
0.00575015
0.00575458
0.00575825
0.00576116
0.00576331
0.00576469
0.0057653
0.00576512
0.00576418
0.00576246
0.00575993
0.00575664
0.00575255
0.00574766
0.00574198
0.00573551
0.00572823
0.00572015
0.00571128
0.00570159
0.0056911
0.00567981
0.00566769
0.00565479
0.00564105
0.00562653
0.00561117
0.00559502
0.00557805
0.00556026
0.00554168
0.00552227
0.00550206
0.00548103
0.00545921
0.00543656
0.00541312
0.00538887
0.00536382
0.00533796
0.00531131
0.00528385
0.00525561
0.00522656
0.00519674
0.00516611
0.00513471
0.00510253
0.00506955
0.00503582
0.00500131
0.00496603
0.00492998
0.00489318
0.00485563
0.00481731
0.00477825
0.00473845
0.00469792
0.00465665
0.00461465
0.00457193
0.00452849
0.00448435
0.0044395
0.00439395
0.00434771
0.00430078
0.00425317
0.00420488
0.00415594
0.00410632
0.00405606
0.00400515
0.0039536
0.00390142
0.00384862
0.00379519
0.00374117
0.00368654
0.00363131
0.0035755
0.00351913
0.00346217
0.00340466
0.0033466
0.00328801
0.00322887
0.00316921
0.00310904
0.00304836
0.00298719
0.00292554
0.00286339
0.0028008
0.00273774
0.00267424
0.00261029
0.00254592
0.00248114
0.00241595
0.00235036
0.00228438
0.00221804
0.00215132
0.00208426
0.00201685
0.00194912
0.00188105
0.00181267
0.00174401
0.00167506
0.00160582
0.00153632
0.00146657
0.00139657
0.00132635
0.00125591
0.00118526
0.00111441
0.00104338
0.00097217
0.00090081
0.00082929
0.00075764
0.00068587
0.00061397
0.00054198
0.0004699
0.00039774
0.00032551
0.00025323
0.00018091
0.00010856
3.619e-05
-3.619e-05
-0.00010856
-0.00018091
-0.00025323
-0.00032551
-0.00039774
-0.0004699
-0.00054198
-0.00061397
-0.00068587
-0.00075764
-0.00082929
-0.00090081
-0.00097217
-0.00104338
-0.00111441
-0.00118526
-0.00125591
-0.00132635
-0.00139657
-0.00146657
-0.00153632
-0.00160582
-0.00167506
-0.00174401
-0.00181267
-0.00188105
-0.00194912
-0.00201685
-0.00208426
-0.00215132
-0.00221804
-0.00228438
-0.00235036
-0.00241595
-0.00248114
-0.00254592
-0.00261029
-0.00267424
-0.00273774
-0.0028008
-0.00286339
-0.00292554
-0.00298719
-0.00304836
-0.00310904
-0.00316921
-0.00322887
-0.00328801
-0.0033466
-0.00340466
-0.00346217
-0.00351913
-0.0035755
-0.00363131
-0.00368654
-0.00374117
-0.00379519
-0.00384862
-0.00390142
-0.0039536
-0.00400515
-0.00405606
-0.00410632
-0.00415594
-0.00420488
-0.00425317
-0.00430078
-0.00434771
-0.00439395
-0.0044395
-0.00448435
-0.00452849
-0.00457193
-0.00461465
-0.00465665
-0.00469792
-0.00473845
-0.00477825
-0.00481731
-0.00485563
-0.00489318
-0.00492998
-0.00496603
-0.00500131
-0.00503582
-0.00506955
-0.00510253
-0.00513471
-0.00516611
-0.00519674
-0.00522656
-0.00525561
-0.00528385
-0.00531131
-0.00533796
-0.00536382
-0.00538887
-0.00541312
-0.00543656
-0.00545921
-0.00548103
-0.00550206
-0.00552227
-0.00554168
-0.00556026
-0.00557805
-0.00559502
-0.00561117
-0.00562653
-0.00564105
-0.00565479
-0.00566769
-0.00567981
-0.0056911
-0.00570159
-0.00571128
-0.00572015
-0.00572823
-0.00573551
-0.00574198
-0.00574766
-0.00575255
-0.00575664
-0.00575993
-0.00576246
-0.00576418
-0.00576512
-0.0057653
-0.00576469
-0.00576331
-0.00576116
-0.00575825
-0.00575458
-0.00575015
-0.00574497
-0.00573904
-0.00573237
-0.00572496
-0.00571681
-0.00570794
-0.00569833
-0.00568802
-0.00567698
-0.00566525
-0.00565279
-0.00563965
-0.00562582
-0.0056113
-0.0055961
-0.00558022
-0.00556369
-0.00554648
-0.00552862
-0.00551012
-0.00549097
-0.00547119
-0.00545078
-0.00542976
-0.00540811
-0.00538586
-0.00536301
-0.00533958
-0.00531555
-0.00529095
-0.00526578
-0.00524006
-0.00521377
-0.00518694
-0.00515959
-0.00513168
-0.00510328
-0.00507434
-0.00504492
-0.00501499
-0.00498458
-0.00495368
-0.00492232
-0.0048905
-0.00485822
-0.0048255
-0.00479235
-0.00475876
-0.00472476
-0.00469036
-0.00465555
-0.00462035
-0.00458478
-0.00454882
-0.00451251
-0.00447585
-0.00443884
-0.00440148
-0.00436382
-0.00432583
-0.00428754
-0.00424894
-0.00421006
-0.00417091
-0.00413147
-0.00409178
-0.00405185
-0.00401166
-0.00397125
-0.00393061
-0.00388977
-0.00384871
-0.00380747
-0.00376603
-0.00372444
-0.00368266
-0.00364073
-0.00359865
-0.00355644
-0.0035141
-0.00347164
-0.00342907
-0.0033864
-0.00334363
-0.00330078
-0.00325787
-0.00321488
-0.00317185
-0.00312876
-0.00308564
-0.00304249
-0.00299932
-0.00295613
-0.00291296
-0.00286978
-0.00282662
-0.00278349
-0.00274039
-0.00269732
-0.00265431
-0.00261136
-0.00256847
-0.00252566
-0.00248292
-0.00244029
-0.00239774
-0.00235532
-0.00231299
-0.00227079
-0.00222872
-0.0021868
-0.00214501
-0.00210337
-0.0020619
-0.0020206
0.00197946
0.00193852
0.00189775
0.00185718
0.00181682
0.00177666
0.00173672
0.00169699
0.00165751
0.00161825
0.00157923
0.00154047
0.00150195
0.00146368
0.0014257
0.00138797
0.00135052
0.00131336
0.00127647
0.00123989
0.00120359
0.00116761
0.00113192
0.00109655
0.00106149
0.00102676
0.00099235
0.00095827
0.00092452
0.00089111
0.00085805
0.00082533
0.00079295
0.00076094
0.00072927
0.00069798
0.00066703
0.00063646
0.00060626
0.00057643
0.00054697
0.00051789
0.00048919
0.00046088
0.00043295
0.00040541
0.00037825
0.00035149
0.00032512
0.00029915
0.00027356
0.00024839
0.0002236
0.00019923
0.00017524
0.00015167
0.00012849
0.00010572
8.336e-05
6.14e-05
3.985e-05
1.869e-05
-2.04e-06
-2.238e-05
-4.231e-05
-6.183e-05
-8.094e-05
-9.966e-05
-0.00011797
-0.00013586
-0.00015336
-0.00017046
-0.00018715
-0.00020344
-0.00021933
-0.00023482
-0.00024992
-0.00026461
-0.00027892
-0.00029283
-0.00030635
-0.00031948
-0.00033222
-0.00034458
-0.00035655
-0.00036814
-0.00037936
-0.00039019
-0.00040065
-0.00041074
-0.00042046
-0.00042982
-0.0004388
-0.00044744
-0.0004557
-0.00046363
-0.00047118
-0.0004784
-0.00048527
-0.0004918
-0.00049799
-0.00050384
-0.00050937
-0.00051455
-0.00051943
-0.00052397
-0.00052821
-0.00053212
-0.00053573
-0.00053903
-0.00054204
-0.00054473
-0.00054715
-0.00054927
-0.00055111
-0.00055266
-0.00055393
-0.00055495
-0.00055568
-0.00055616
-0.00055638
-0.00055634
-0.00055605
-0.00055551
-0.00055474
-0.00055374
-0.00055249
-0.00055102
-0.00054933
-0.00054742
-0.00054531
-0.00054297
-0.00054044
-0.00053771
-0.00053479
-0.00053167
-0.00052838
-0.0005249
-0.00052125
-0.00051744
-0.00051344
-0.00050931
-0.000505
-0.00050056
-0.00049597
-0.00049123
-0.00048636
-0.00048136
-0.00047623
-0.00047099
-0.00046563
-0.00046015
-0.00045457
-0.00044889
-0.00044311
-0.00043723
-0.00043128
-0.00042524
-0.00041911
-0.00041292
-0.00040666
-0.00040033
-0.00039394
-0.0003875
-0.00038101
-0.00037446
-0.00036788
-0.00036127
-0.00035461
-0.00034792
-0.00034122
-0.0003345
-0.00032775
-0.00032099
-0.00031423
-0.00030746
-0.00030069
-0.00029393
-0.00028717
-0.00028043
-0.00027369
-0.00026699
-0.0002603
-0.00025364
-0.00024701
-0.00024041
-0.00023385
-0.00022734
-0.00022085
-0.00021443
-0.00020805
-0.00020173
-0.00019546
-0.00018926
-0.0001831
-0.00017703
-0.00017102
-0.00016508
-0.00015921
-0.00015343
-0.00014771
-0.00014209
-0.00013655
-0.00013109
-0.00012572
-0.00012044
-0.00011526
-0.00011018
-0.00010518
-0.0001003
-9.55e-05
-9.083e-05
-8.624e-05
-8.176e-05
-7.74e-05
-7.315e-05
-6.9e-05
-6.497e-05
-6.105e-05
-5.724e-05
-5.357e-05
-4.999e-05
-4.655e-05
-4.321e-05
-4e-05
-3.692e-05
-3.394e-05
-3.111e-05
-2.838e-05
-2.579e-05
-2.331e-05
-2.096e-05
-1.874e-05
-1.665e-05
-1.467e-05
-1.282e-05
-1.11e-05
-9.5e-06
-8.03e-06
-6.69e-06
-5.46e-06
-4.37e-06
-3.39e-06
-2.55e-06
-1.82e-06
-1.22e-06
-7.3e-07
-3.8e-07
-1.4e-07
-2e-08
0
0
18

shape_id 2
num_samples 1020
0.5
0
0
246
-0.5
0
0
498
0.5
0
0
246
-0.5
0
0
18

