# Pulseq sequence file
# Created by PyPulseq

[VERSION]
major 1
minor 2
revision 0

[DEFINITIONS]
FOV 997 997 0.008 
Name gre 

# Format of blocks:
#  #  D RF  GX  GY  GZ ADC
[BLOCKS]
  1  1  0   0   0   0  0
  2  0  1   0   0   0  0
  3  0  0   1   2   0  0
  4  0  0   3   0   0  1
  5  2  0   0   0   0  0
  6  1  0   0   0   0  0
  7  0  1   0   0   0  0
  8  0  0   1   4   0  0
  9  0  0   3   0   0  1
 10  2  0   0   0   0  0
 11  1  0   0   0   0  0
 12  0  1   0   0   0  0
 13  0  0   1   5   0  0
 14  0  0   3   0   0  1
 15  2  0   0   0   0  0
 16  1  0   0   0   0  0
 17  0  1   0   0   0  0
 18  0  0   1   6   0  0
 19  0  0   3   0   0  1
 20  2  0   0   0   0  0
 21  1  0   0   0   0  0
 22  0  1   0   0   0  0
 23  0  0   1   7   0  0
 24  0  0   3   0   0  1
 25  2  0   0   0   0  0
 26  1  0   0   0   0  0
 27  0  1   0   0   0  0
 28  0  0   1   8   0  0
 29  0  0   3   0   0  1
 30  2  0   0   0   0  0
 31  1  0   0   0   0  0
 32  0  1   0   0   0  0
 33  0  0   1   9   0  0
 34  0  0   3   0   0  1
 35  2  0   0   0   0  0
 36  1  0   0   0   0  0
 37  0  1   0   0   0  0
 38  0  0   1  10   0  0
 39  0  0   3   0   0  1
 40  2  0   0   0   0  0
 41  1  0   0   0   0  0
 42  0  1   0   0   0  0
 43  0  0   1  11   0  0
 44  0  0   3   0   0  1
 45  2  0   0   0   0  0
 46  1  0   0   0   0  0
 47  0  1   0   0   0  0
 48  0  0   1  12   0  0
 49  0  0   3   0   0  1
 50  2  0   0   0   0  0
 51  1  0   0   0   0  0
 52  0  1   0   0   0  0
 53  0  0   1  13   0  0
 54  0  0   3   0   0  1
 55  2  0   0   0   0  0
 56  1  0   0   0   0  0
 57  0  1   0   0   0  0
 58  0  0   1  14   0  0
 59  0  0   3   0   0  1
 60  2  0   0   0   0  0
 61  1  0   0   0   0  0
 62  0  1   0   0   0  0
 63  0  0   1  15   0  0
 64  0  0   3   0   0  1
 65  2  0   0   0   0  0
 66  1  0   0   0   0  0
 67  0  1   0   0   0  0
 68  0  0   1  16   0  0
 69  0  0   3   0   0  1
 70  2  0   0   0   0  0
 71  1  0   0   0   0  0
 72  0  1   0   0   0  0
 73  0  0   1  17   0  0
 74  0  0   3   0   0  1
 75  2  0   0   0   0  0
 76  1  0   0   0   0  0
 77  0  1   0   0   0  0
 78  0  0   1  18   0  0
 79  0  0   3   0   0  1
 80  2  0   0   0   0  0
 81  1  0   0   0   0  0
 82  0  1   0   0   0  0
 83  0  0   1  19   0  0
 84  0  0   3   0   0  1
 85  2  0   0   0   0  0
 86  1  0   0   0   0  0
 87  0  1   0   0   0  0
 88  0  0   1  20   0  0
 89  0  0   3   0   0  1
 90  2  0   0   0   0  0
 91  1  0   0   0   0  0
 92  0  1   0   0   0  0
 93  0  0   1  21   0  0
 94  0  0   3   0   0  1
 95  2  0   0   0   0  0
 96  1  0   0   0   0  0
 97  0  1   0   0   0  0
 98  0  0   1  22   0  0
 99  0  0   3   0   0  1
100  2  0   0   0   0  0
101  1  0   0   0   0  0
102  0  1   0   0   0  0
103  0  0   1  23   0  0
104  0  0   3   0   0  1
105  2  0   0   0   0  0
106  1  0   0   0   0  0
107  0  1   0   0   0  0
108  0  0   1  24   0  0
109  0  0   3   0   0  1
110  2  0   0   0   0  0
111  1  0   0   0   0  0
112  0  1   0   0   0  0
113  0  0   1  25   0  0
114  0  0   3   0   0  1
115  2  0   0   0   0  0
116  1  0   0   0   0  0
117  0  1   0   0   0  0
118  0  0   1  26   0  0
119  0  0   3   0   0  1
120  2  0   0   0   0  0
121  1  0   0   0   0  0
122  0  1   0   0   0  0
123  0  0   1  27   0  0
124  0  0   3   0   0  1
125  2  0   0   0   0  0
126  1  0   0   0   0  0
127  0  1   0   0   0  0
128  0  0   1  28   0  0
129  0  0   3   0   0  1
130  2  0   0   0   0  0
131  1  0   0   0   0  0
132  0  1   0   0   0  0
133  0  0   1  29   0  0
134  0  0   3   0   0  1
135  2  0   0   0   0  0
136  1  0   0   0   0  0
137  0  1   0   0   0  0
138  0  0   1  30   0  0
139  0  0   3   0   0  1
140  2  0   0   0   0  0
141  1  0   0   0   0  0
142  0  1   0   0   0  0
143  0  0   1  31   0  0
144  0  0   3   0   0  1
145  2  0   0   0   0  0
146  1  0   0   0   0  0
147  0  1   0   0   0  0
148  0  0   1  32   0  0
149  0  0   3   0   0  1
150  2  0   0   0   0  0
151  1  0   0   0   0  0
152  0  1   0   0   0  0
153  0  0   1  33   0  0
154  0  0   3   0   0  1
155  2  0   0   0   0  0
156  1  0   0   0   0  0
157  0  1   0   0   0  0
158  0  0   1  34   0  0
159  0  0   3   0   0  1
160  2  0   0   0   0  0
161  1  0   0   0   0  0
162  0  1   0   0   0  0
163  0  0   1  35   0  0
164  0  0   3   0   0  1
165  2  0   0   0   0  0
166  1  0   0   0   0  0
167  0  1   0   0   0  0
168  0  0   1  36   0  0
169  0  0   3   0   0  1
170  2  0   0   0   0  0
171  1  0   0   0   0  0
172  0  1   0   0   0  0
173  0  0   1  37   0  0
174  0  0   3   0   0  1
175  2  0   0   0   0  0
176  1  0   0   0   0  0
177  0  1   0   0   0  0
178  0  0   1  38   0  0
179  0  0   3   0   0  1
180  2  0   0   0   0  0
181  1  0   0   0   0  0
182  0  1   0   0   0  0
183  0  0   1  39   0  0
184  0  0   3   0   0  1
185  2  0   0   0   0  0
186  1  0   0   0   0  0
187  0  1   0   0   0  0
188  0  0   1  40   0  0
189  0  0   3   0   0  1
190  2  0   0   0   0  0
191  1  0   0   0   0  0
192  0  1   0   0   0  0
193  0  0   1  41   0  0
194  0  0   3   0   0  1
195  2  0   0   0   0  0
196  1  0   0   0   0  0
197  0  1   0   0   0  0
198  0  0   1  42   0  0
199  0  0   3   0   0  1
200  2  0   0   0   0  0
201  1  0   0   0   0  0
202  0  1   0   0   0  0
203  0  0   1  43   0  0
204  0  0   3   0   0  1
205  2  0   0   0   0  0
206  1  0   0   0   0  0
207  0  1   0   0   0  0
208  0  0   1  44   0  0
209  0  0   3   0   0  1
210  2  0   0   0   0  0
211  1  0   0   0   0  0
212  0  1   0   0   0  0
213  0  0   1  45   0  0
214  0  0   3   0   0  1
215  2  0   0   0   0  0
216  1  0   0   0   0  0
217  0  1   0   0   0  0
218  0  0   1  46   0  0
219  0  0   3   0   0  1
220  2  0   0   0   0  0
221  1  0   0   0   0  0
222  0  1   0   0   0  0
223  0  0   1  47   0  0
224  0  0   3   0   0  1
225  2  0   0   0   0  0
226  1  0   0   0   0  0
227  0  1   0   0   0  0
228  0  0   1  48   0  0
229  0  0   3   0   0  1
230  2  0   0   0   0  0
231  1  0   0   0   0  0
232  0  1   0   0   0  0
233  0  0   1  49   0  0
234  0  0   3   0   0  1
235  2  0   0   0   0  0
236  1  0   0   0   0  0
237  0  1   0   0   0  0
238  0  0   1  50   0  0
239  0  0   3   0   0  1
240  2  0   0   0   0  0
241  1  0   0   0   0  0
242  0  1   0   0   0  0
243  0  0   1  51   0  0
244  0  0   3   0   0  1
245  2  0   0   0   0  0
246  1  0   0   0   0  0
247  0  1   0   0   0  0
248  0  0   1  52   0  0
249  0  0   3   0   0  1
250  2  0   0   0   0  0
251  1  0   0   0   0  0
252  0  1   0   0   0  0
253  0  0   1  53   0  0
254  0  0   3   0   0  1
255  2  0   0   0   0  0
256  1  0   0   0   0  0
257  0  1   0   0   0  0
258  0  0   1  54   0  0
259  0  0   3   0   0  1
260  2  0   0   0   0  0
261  1  0   0   0   0  0
262  0  1   0   0   0  0
263  0  0   1  55   0  0
264  0  0   3   0   0  1
265  2  0   0   0   0  0
266  1  0   0   0   0  0
267  0  1   0   0   0  0
268  0  0   1  56   0  0
269  0  0   3   0   0  1
270  2  0   0   0   0  0
271  1  0   0   0   0  0
272  0  1   0   0   0  0
273  0  0   1  57   0  0
274  0  0   3   0   0  1
275  2  0   0   0   0  0
276  1  0   0   0   0  0
277  0  1   0   0   0  0
278  0  0   1  58   0  0
279  0  0   3   0   0  1
280  2  0   0   0   0  0
281  1  0   0   0   0  0
282  0  1   0   0   0  0
283  0  0   1  59   0  0
284  0  0   3   0   0  1
285  2  0   0   0   0  0
286  1  0   0   0   0  0
287  0  1   0   0   0  0
288  0  0   1  60   0  0
289  0  0   3   0   0  1
290  2  0   0   0   0  0
291  1  0   0   0   0  0
292  0  1   0   0   0  0
293  0  0   1  61   0  0
294  0  0   3   0   0  1
295  2  0   0   0   0  0
296  1  0   0   0   0  0
297  0  1   0   0   0  0
298  0  0   1  62   0  0
299  0  0   3   0   0  1
300  2  0   0   0   0  0
301  1  0   0   0   0  0
302  0  1   0   0   0  0
303  0  0   1  63   0  0
304  0  0   3   0   0  1
305  2  0   0   0   0  0
306  1  0   0   0   0  0
307  0  1   0   0   0  0
308  0  0   1  64   0  0
309  0  0   3   0   0  1
310  2  0   0   0   0  0
311  1  0   0   0   0  0
312  0  1   0   0   0  0
313  0  0   1  65   0  0
314  0  0   3   0   0  1
315  2  0   0   0   0  0
316  1  0   0   0   0  0
317  0  1   0   0   0  0
318  0  0   1  66   0  0
319  0  0   3   0   0  1
320  2  0   0   0   0  0

# Format of RF events:
# id amplitude mag_id phase_id delay freq phase
# ..        Hz   ....     ....    us   Hz   rad
[RF]
1      54.8587 1 2 500 0 0

# Format of trapezoid gradients:
# id amplitude rise flat fall delay
# ..      Hz/m   us   us   us    us
[TRAP]
 1       -80000 5e+08    0 5e+08   0
 2     -1641.03 5e+08 1.9e+10 5e+08   0
 3        32000 5e+08 2e+09 5e+08   0
 4     -1589.74 5e+08 1.9e+10 5e+08   0
 5     -1538.46 5e+08 1.9e+10 5e+08   0
 6     -1487.18 5e+08 1.9e+10 5e+08   0
 7      -1435.9 5e+08 1.9e+10 5e+08   0
 8     -1384.62 5e+08 1.9e+10 5e+08   0
 9     -1333.33 5e+08 1.9e+10 5e+08   0
10     -1282.05 5e+08 1.9e+10 5e+08   0
11     -1230.77 5e+08 1.9e+10 5e+08   0
12     -1179.49 5e+08 1.9e+10 5e+08   0
13     -1128.21 5e+08 1.9e+10 5e+08   0
14     -1076.92 5e+08 1.9e+10 5e+08   0
15     -1025.64 5e+08 1.9e+10 5e+08   0
16     -974.359 5e+08 1.9e+10 5e+08   0
17     -923.077 5e+08 1.9e+10 5e+08   0
18     -871.795 5e+08 1.9e+10 5e+08   0
19     -820.513 5e+08 1.9e+10 5e+08   0
20     -769.231 5e+08 1.9e+10 5e+08   0
21     -717.949 5e+08 1.9e+10 5e+08   0
22     -666.667 5e+08 1.9e+10 5e+08   0
23     -615.385 5e+08 1.9e+10 5e+08   0
24     -564.103 5e+08 1.9e+10 5e+08   0
25     -512.821 5e+08 1.9e+10 5e+08   0
26     -461.538 5e+08 1.9e+10 5e+08   0
27     -410.256 5e+08 1.9e+10 5e+08   0
28     -358.974 5e+08 1.9e+10 5e+08   0
29     -307.692 5e+08 1.9e+10 5e+08   0
30      -256.41 5e+08 1.9e+10 5e+08   0
31     -205.128 5e+08 1.9e+10 5e+08   0
32     -153.846 5e+08 1.9e+10 5e+08   0
33     -102.564 5e+08 1.9e+10 5e+08   0
34     -51.2821 5e+08 1.9e+10 5e+08   0
35            0   0 2e+10   0   0
36      51.2821 5e+08 1.9e+10 5e+08   0
37      102.564 5e+08 1.9e+10 5e+08   0
38      153.846 5e+08 1.9e+10 5e+08   0
39      205.128 5e+08 1.9e+10 5e+08   0
40       256.41 5e+08 1.9e+10 5e+08   0
41      307.692 5e+08 1.9e+10 5e+08   0
42      358.974 5e+08 1.9e+10 5e+08   0
43      410.256 5e+08 1.9e+10 5e+08   0
44      461.538 5e+08 1.9e+10 5e+08   0
45      512.821 5e+08 1.9e+10 5e+08   0
46      564.103 5e+08 1.9e+10 5e+08   0
47      615.385 5e+08 1.9e+10 5e+08   0
48      666.667 5e+08 1.9e+10 5e+08   0
49      717.949 5e+08 1.9e+10 5e+08   0
50      769.231 5e+08 1.9e+10 5e+08   0
51      820.513 5e+08 1.9e+10 5e+08   0
52      871.795 5e+08 1.9e+10 5e+08   0
53      923.077 5e+08 1.9e+10 5e+08   0
54      974.359 5e+08 1.9e+10 5e+08   0
55      1025.64 5e+08 1.9e+10 5e+08   0
56      1076.92 5e+08 1.9e+10 5e+08   0
57      1128.21 5e+08 1.9e+10 5e+08   0
58      1179.49 5e+08 1.9e+10 5e+08   0
59      1230.77 5e+08 1.9e+10 5e+08   0
60      1282.05 5e+08 1.9e+10 5e+08   0
61      1333.33 5e+08 1.9e+10 5e+08   0
62      1384.62 5e+08 1.9e+10 5e+08   0
63       1435.9 5e+08 1.9e+10 5e+08   0
64      1487.18 5e+08 1.9e+10 5e+08   0
65      1538.46 5e+08 1.9e+10 5e+08   0
66      1589.74 5e+08 1.9e+10 5e+08   0

# Format of ADC events:
# id num dwell delay freq phase
# ..  ..    ns    us   Hz   rad
[ADC]
1 64 31250 500 0 0

# Format of delays:
# id delay (us)
[DELAYS]
1 1000000
2 10000000

# Sequence Shapes
[SHAPES]

shape_id 1
num_samples 1020
2e-08
1.4e-07
3.8e-07
7.3e-07
1.22e-06
1.82e-06
2.55e-06
3.39e-06
4.37e-06
5.46e-06
6.69e-06
8.03e-06
9.5e-06
1.11e-05
1.282e-05
1.467e-05
1.665e-05
1.874e-05
2.096e-05
2.331e-05
2.579e-05
2.838e-05
3.111e-05
3.394e-05
3.692e-05
4e-05
4.321e-05
4.655e-05
4.999e-05
5.357e-05
5.724e-05
6.105e-05
6.497e-05
6.9e-05
7.315e-05
7.74e-05
8.176e-05
8.624e-05
9.083e-05
9.55e-05
0.0001003
0.00010518
0.00011018
0.00011526
0.00012044
0.00012572
0.00013109
0.00013655
0.00014209
0.00014771
0.00015343
0.00015921
0.00016508
0.00017102
0.00017703
0.0001831
0.00018926
0.00019546
0.00020173
0.00020805
0.00021443
0.00022085
0.00022734
0.00023385
0.00024041
0.00024701
0.00025364
0.0002603
0.00026699
0.00027369
0.00028043
0.00028717
0.00029393
0.00030069
0.00030746
0.00031423
0.00032099
0.00032775
0.0003345
0.00034122
0.00034792
0.00035461
0.00036127
0.00036788
0.00037446
0.00038101
0.0003875
0.00039394
0.00040033
0.00040666
0.00041292
0.00041911
0.00042524
0.00043128
0.00043723
0.00044311
0.00044889
0.00045457
0.00046015
0.00046563
0.00047099
0.00047623
0.00048136
0.00048636
0.00049123
0.00049597
0.00050056
0.000505
0.00050931
0.00051344
0.00051744
0.00052125
0.0005249
0.00052838
0.00053167
0.00053479
0.00053771
0.00054044
0.00054297
0.00054531
0.00054742
0.00054933
0.00055102
0.00055249
0.00055374
0.00055474
0.00055551
0.00055605
0.00055634
0.00055638
0.00055616
0.00055568
0.00055495
0.00055393
0.00055266
0.00055111
0.00054927
0.00054715
0.00054473
0.00054204
0.00053903
0.00053573
0.00053212
0.00052821
0.00052397
0.00051943
0.00051455
0.00050937
0.00050384
0.00049799
0.0004918
0.00048527
0.0004784
0.00047118
0.00046363
0.0004557
0.00044744
0.0004388
0.00042982
0.00042046
0.00041074
0.00040065
0.00039019
0.00037936
0.00036814
0.00035655
0.00034458
0.00033222
0.00031948
0.00030635
0.00029283
0.00027892
0.00026461
0.00024992
0.00023482
0.00021933
0.00020344
0.00018715
0.00017046
0.00015336
0.00013586
0.00011797
9.966e-05
8.094e-05
6.183e-05
4.231e-05
2.238e-05
2.04e-06
-1.869e-05
-3.985e-05
-6.14e-05
-8.336e-05
-0.00010572
-0.00012849
-0.00015167
-0.00017524
-0.00019923
-0.0002236
-0.00024839
-0.00027356
-0.00029915
-0.00032512
-0.00035149
-0.00037825
-0.00040541
-0.00043295
-0.00046088
-0.00048919
-0.00051789
-0.00054697
-0.00057643
-0.00060626
-0.00063646
-0.00066703
-0.00069798
-0.00072927
-0.00076094
-0.00079295
-0.00082533
-0.00085805
-0.00089111
-0.00092452
-0.00095827
-0.00099235
-0.00102676
-0.00106149
-0.00109655
-0.00113192
-0.00116761
-0.00120359
-0.00123989
-0.00127647
-0.00131336
-0.00135052
-0.00138797
-0.0014257
-0.00146368
-0.00150195
-0.00154047
-0.00157923
-0.00161825
-0.00165751
-0.00169699
-0.00173672
-0.00177666
-0.00181682
-0.00185718
-0.00189775
-0.00193852
-0.00197946
0.0020206
0.0020619
0.00210337
0.00214501
0.0021868
0.00222872
0.00227079
0.00231299
0.00235532
0.00239774
0.00244029
0.00248292
0.00252566
0.00256847
0.00261136
0.00265431
0.00269732
0.00274039
0.00278349
0.00282662
0.00286978
0.00291296
0.00295613
0.00299932
0.00304249
0.00308564
0.00312876
0.00317185
0.00321488
0.00325787
0.00330078
0.00334363
0.0033864
0.00342907
0.00347164
0.0035141
0.00355644
0.00359865
0.00364073
0.00368266
0.00372444
0.00376603
0.00380747
0.00384871
0.00388977
0.00393061
0.00397125
0.00401166
0.00405185
0.00409178
0.00413147
0.00417091
0.00421006
0.00424894
0.00428754
0.00432583
0.00436382
0.00440148
0.00443884
0.00447585
0.00451251
0.00454882
0.00458478
0.00462035
0.00465555
0.00469036
0.00472476
0.00475876
0.00479235
0.0048255
0.00485822
0.0048905
0.00492232
0.00495368
0.00498458
0.00501499
0.00504492
0.00507434
0.00510328
0.00513168
0.00515959
0.00518694
0.00521377
0.00524006
0.00526578
0.00529095
0.00531555
0.00533958
0.00536301
0.00538586
0.00540811
0.00542976
0.00545078
0.00547119
0.00549097
0.00551012
0.00552862
0.00554648
0.00556369
0.00558022
0.0055961
0.0056113
0.00562582
0.00563965
0.00565279
0.00566525
0.00567698
0.00568802
0.00569833
0.00570794
0.00571681
0.00572496
0.00573237
0.00573904
0.00574497
0.00575015
0.00575458
0.00575825
0.00576116
0.00576331
0.00576469
0.0057653
0.00576512
0.00576418
0.00576246
0.00575993
0.00575664
0.00575255
0.00574766
0.00574198
0.00573551
0.00572823
0.00572015
0.00571128
0.00570159
0.0056911
0.00567981
0.00566769
0.00565479
0.00564105
0.00562653
0.00561117
0.00559502
0.00557805
0.00556026
0.00554168
0.00552227
0.00550206
0.00548103
0.00545921
0.00543656
0.00541312
0.00538887
0.00536382
0.00533796
0.00531131
0.00528385
0.00525561
0.00522656
0.00519674
0.00516611
0.00513471
0.00510253
0.00506955
0.00503582
0.00500131
0.00496603
0.00492998
0.00489318
0.00485563
0.00481731
0.00477825
0.00473845
0.00469792
0.00465665
0.00461465
0.00457193
0.00452849
0.00448435
0.0044395
0.00439395
0.00434771
0.00430078
0.00425317
0.00420488
0.00415594
0.00410632
0.00405606
0.00400515
0.0039536
0.00390142
0.00384862
0.00379519
0.00374117
0.00368654
0.00363131
0.0035755
0.00351913
0.00346217
0.00340466
0.0033466
0.00328801
0.00322887
0.00316921
0.00310904
0.00304836
0.00298719
0.00292554
0.00286339
0.0028008
0.00273774
0.00267424
0.00261029
0.00254592
0.00248114
0.00241595
0.00235036
0.00228438
0.00221804
0.00215132
0.00208426
0.00201685
0.00194912
0.00188105
0.00181267
0.00174401
0.00167506
0.00160582
0.00153632
0.00146657
0.00139657
0.00132635
0.00125591
0.00118526
0.00111441
0.00104338
0.00097217
0.00090081
0.00082929
0.00075764
0.00068587
0.00061397
0.00054198
0.0004699
0.00039774
0.00032551
0.00025323
0.00018091
0.00010856
3.619e-05
-3.619e-05
-0.00010856
-0.00018091
-0.00025323
-0.00032551
-0.00039774
-0.0004699
-0.00054198
-0.00061397
-0.00068587
-0.00075764
-0.00082929
-0.00090081
-0.00097217
-0.00104338
-0.00111441
-0.00118526
-0.00125591
-0.00132635
-0.00139657
-0.00146657
-0.00153632
-0.00160582
-0.00167506
-0.00174401
-0.00181267
-0.00188105
-0.00194912
-0.00201685
-0.00208426
-0.00215132
-0.00221804
-0.00228438
-0.00235036
-0.00241595
-0.00248114
-0.00254592
-0.00261029
-0.00267424
-0.00273774
-0.0028008
-0.00286339
-0.00292554
-0.00298719
-0.00304836
-0.00310904
-0.00316921
-0.00322887
-0.00328801
-0.0033466
-0.00340466
-0.00346217
-0.00351913
-0.0035755
-0.00363131
-0.00368654
-0.00374117
-0.00379519
-0.00384862
-0.00390142
-0.0039536
-0.00400515
-0.00405606
-0.00410632
-0.00415594
-0.00420488
-0.00425317
-0.00430078
-0.00434771
-0.00439395
-0.0044395
-0.00448435
-0.00452849
-0.00457193
-0.00461465
-0.00465665
-0.00469792
-0.00473845
-0.00477825
-0.00481731
-0.00485563
-0.00489318
-0.00492998
-0.00496603
-0.00500131
-0.00503582
-0.00506955
-0.00510253
-0.00513471
-0.00516611
-0.00519674
-0.00522656
-0.00525561
-0.00528385
-0.00531131
-0.00533796
-0.00536382
-0.00538887
-0.00541312
-0.00543656
-0.00545921
-0.00548103
-0.00550206
-0.00552227
-0.00554168
-0.00556026
-0.00557805
-0.00559502
-0.00561117
-0.00562653
-0.00564105
-0.00565479
-0.00566769
-0.00567981
-0.0056911
-0.00570159
-0.00571128
-0.00572015
-0.00572823
-0.00573551
-0.00574198
-0.00574766
-0.00575255
-0.00575664
-0.00575993
-0.00576246
-0.00576418
-0.00576512
-0.0057653
-0.00576469
-0.00576331
-0.00576116
-0.00575825
-0.00575458
-0.00575015
-0.00574497
-0.00573904
-0.00573237
-0.00572496
-0.00571681
-0.00570794
-0.00569833
-0.00568802
-0.00567698
-0.00566525
-0.00565279
-0.00563965
-0.00562582
-0.0056113
-0.0055961
-0.00558022
-0.00556369
-0.00554648
-0.00552862
-0.00551012
-0.00549097
-0.00547119
-0.00545078
-0.00542976
-0.00540811
-0.00538586
-0.00536301
-0.00533958
-0.00531555
-0.00529095
-0.00526578
-0.00524006
-0.00521377
-0.00518694
-0.00515959
-0.00513168
-0.00510328
-0.00507434
-0.00504492
-0.00501499
-0.00498458
-0.00495368
-0.00492232
-0.0048905
-0.00485822
-0.0048255
-0.00479235
-0.00475876
-0.00472476
-0.00469036
-0.00465555
-0.00462035
-0.00458478
-0.00454882
-0.00451251
-0.00447585
-0.00443884
-0.00440148
-0.00436382
-0.00432583
-0.00428754
-0.00424894
-0.00421006
-0.00417091
-0.00413147
-0.00409178
-0.00405185
-0.00401166
-0.00397125
-0.00393061
-0.00388977
-0.00384871
-0.00380747
-0.00376603
-0.00372444
-0.00368266
-0.00364073
-0.00359865
-0.00355644
-0.0035141
-0.00347164
-0.00342907
-0.0033864
-0.00334363
-0.00330078
-0.00325787
-0.00321488
-0.00317185
-0.00312876
-0.00308564
-0.00304249
-0.00299932
-0.00295613
-0.00291296
-0.00286978
-0.00282662
-0.00278349
-0.00274039
-0.00269732
-0.00265431
-0.00261136
-0.00256847
-0.00252566
-0.00248292
-0.00244029
-0.00239774
-0.00235532
-0.00231299
-0.00227079
-0.00222872
-0.0021868
-0.00214501
-0.00210337
-0.0020619
-0.0020206
0.00197946
0.00193852
0.00189775
0.00185718
0.00181682
0.00177666
0.00173672
0.00169699
0.00165751
0.00161825
0.00157923
0.00154047
0.00150195
0.00146368
0.0014257
0.00138797
0.00135052
0.00131336
0.00127647
0.00123989
0.00120359
0.00116761
0.00113192
0.00109655
0.00106149
0.00102676
0.00099235
0.00095827
0.00092452
0.00089111
0.00085805
0.00082533
0.00079295
0.00076094
0.00072927
0.00069798
0.00066703
0.00063646
0.00060626
0.00057643
0.00054697
0.00051789
0.00048919
0.00046088
0.00043295
0.00040541
0.00037825
0.00035149
0.00032512
0.00029915
0.00027356
0.00024839
0.0002236
0.00019923
0.00017524
0.00015167
0.00012849
0.00010572
8.336e-05
6.14e-05
3.985e-05
1.869e-05
-2.04e-06
-2.238e-05
-4.231e-05
-6.183e-05
-8.094e-05
-9.966e-05
-0.00011797
-0.00013586
-0.00015336
-0.00017046
-0.00018715
-0.00020344
-0.00021933
-0.00023482
-0.00024992
-0.00026461
-0.00027892
-0.00029283
-0.00030635
-0.00031948
-0.00033222
-0.00034458
-0.00035655
-0.00036814
-0.00037936
-0.00039019
-0.00040065
-0.00041074
-0.00042046
-0.00042982
-0.0004388
-0.00044744
-0.0004557
-0.00046363
-0.00047118
-0.0004784
-0.00048527
-0.0004918
-0.00049799
-0.00050384
-0.00050937
-0.00051455
-0.00051943
-0.00052397
-0.00052821
-0.00053212
-0.00053573
-0.00053903
-0.00054204
-0.00054473
-0.00054715
-0.00054927
-0.00055111
-0.00055266
-0.00055393
-0.00055495
-0.00055568
-0.00055616
-0.00055638
-0.00055634
-0.00055605
-0.00055551
-0.00055474
-0.00055374
-0.00055249
-0.00055102
-0.00054933
-0.00054742
-0.00054531
-0.00054297
-0.00054044
-0.00053771
-0.00053479
-0.00053167
-0.00052838
-0.0005249
-0.00052125
-0.00051744
-0.00051344
-0.00050931
-0.000505
-0.00050056
-0.00049597
-0.00049123
-0.00048636
-0.00048136
-0.00047623
-0.00047099
-0.00046563
-0.00046015
-0.00045457
-0.00044889
-0.00044311
-0.00043723
-0.00043128
-0.00042524
-0.00041911
-0.00041292
-0.00040666
-0.00040033
-0.00039394
-0.0003875
-0.00038101
-0.00037446
-0.00036788
-0.00036127
-0.00035461
-0.00034792
-0.00034122
-0.0003345
-0.00032775
-0.00032099
-0.00031423
-0.00030746
-0.00030069
-0.00029393
-0.00028717
-0.00028043
-0.00027369
-0.00026699
-0.0002603
-0.00025364
-0.00024701
-0.00024041
-0.00023385
-0.00022734
-0.00022085
-0.00021443
-0.00020805
-0.00020173
-0.00019546
-0.00018926
-0.0001831
-0.00017703
-0.00017102
-0.00016508
-0.00015921
-0.00015343
-0.00014771
-0.00014209
-0.00013655
-0.00013109
-0.00012572
-0.00012044
-0.00011526
-0.00011018
-0.00010518
-0.0001003
-9.55e-05
-9.083e-05
-8.624e-05
-8.176e-05
-7.74e-05
-7.315e-05
-6.9e-05
-6.497e-05
-6.105e-05
-5.724e-05
-5.357e-05
-4.999e-05
-4.655e-05
-4.321e-05
-4e-05
-3.692e-05
-3.394e-05
-3.111e-05
-2.838e-05
-2.579e-05
-2.331e-05
-2.096e-05
-1.874e-05
-1.665e-05
-1.467e-05
-1.282e-05
-1.11e-05
-9.5e-06
-8.03e-06
-6.69e-06
-5.46e-06
-4.37e-06
-3.39e-06
-2.55e-06
-1.82e-06
-1.22e-06
-7.3e-07
-3.8e-07
-1.4e-07
-2e-08
0
0
18

shape_id 2
num_samples 1020
0.5
0
0
246
-0.5
0
0
498
0.5
0
0
246
-0.5
0
0
18

