# Pulseq sequence file
# Created by PyPulseq

[VERSION]
major 1
minor 2
revision 0

[DEFINITIONS]
FOV 1 1 0.008 
Name gre 

# Format of blocks:
#  #  D RF  GX  GY  GZ ADC
[BLOCKS]
 1  0  1   0   0   0  0
 2  0  0   1   2   0  0
 3  0  0   3   4   0  1
 4  0  0   5   4   0  1
 5  0  0   3   4   0  1
 6  0  0   5   4   0  1
 7  0  0   3   4   0  1
 8  0  0   5   4   0  1
 9  0  0   3   4   0  1
10  0  0   5   4   0  1
11  0  0   3   4   0  1
12  0  0   5   4   0  1
13  0  0   3   4   0  1
14  0  0   5   4   0  1
15  0  0   3   4   0  1
16  0  0   5   4   0  1
17  0  0   3   4   0  1
18  0  0   5   4   0  1
19  0  0   3   4   0  1
20  0  0   5   4   0  1
21  0  0   3   4   0  1
22  0  0   5   4   0  1
23  0  0   3   4   0  1
24  0  0   5   4   0  1
25  0  0   3   4   0  1
26  0  0   5   4   0  1
27  0  0   3   4   0  1
28  0  0   5   4   0  1
29  0  0   3   4   0  1
30  0  0   5   4   0  1
31  0  0   3   4   0  1
32  0  0   5   4   0  1
33  0  0   3   4   0  1
34  0  0   5   4   0  1
35  0  0   3   4   0  1
36  0  0   5   4   0  1
37  0  0   3   4   0  1
38  0  0   5   4   0  1
39  0  0   3   4   0  1
40  0  0   5   4   0  1
41  0  0   3   4   0  1
42  0  0   5   4   0  1
43  0  0   3   4   0  1
44  0  0   5   4   0  1
45  0  0   3   4   0  1
46  0  0   5   4   0  1
47  0  0   3   4   0  1
48  0  0   5   4   0  1
49  0  0   3   4   0  1
50  0  0   5   4   0  1
51  0  0   3   4   0  1
52  0  0   5   4   0  1
53  0  0   3   4   0  1
54  0  0   5   4   0  1
55  0  0   3   4   0  1
56  0  0   5   4   0  1
57  0  0   3   4   0  1
58  0  0   5   4   0  1
59  0  0   3   4   0  1
60  0  0   5   4   0  1
61  0  0   3   4   0  1
62  0  0   5   4   0  1
63  0  0   3   4   0  1
64  0  0   5   4   0  1
65  0  0   3   4   0  1
66  0  0   5   4   0  1

# Format of RF events:
# id amplitude mag_id phase_id delay freq phase
# ..        Hz   ....     ....    us   Hz   rad
[RF]
1      1974.91 1 2 500 0 0

# Format of trapezoid gradients:
# id amplitude rise flat fall delay
# ..      Hz/m   us   us   us    us
[TRAP]
 1      -853333 5e+08 -4e+08 5e+08   0
 2      -320000 5e+08 -4e+08 5e+08   0
 3       213333 5e+08 3e+08 5e+08   0
 4     -2127.66 5e+08 -9.7e+08 5e+08   0
 5      -213333 5e+08 3e+08 5e+08   0

# Format of ADC events:
# id num dwell delay freq phase
# ..  ..    ns    us   Hz   rad
[ADC]
1 64 4688 500 0 0

# Sequence Shapes
[SHAPES]

shape_id 1
num_samples 520
1.6e-07
1.11e-06
3.04e-06
5.94e-06
9.83e-06
1.472e-05
2.06e-05
2.749e-05
3.539e-05
4.427e-05
5.417e-05
6.505e-05
7.692e-05
8.976e-05
0.00010356
0.00011829
0.00013397
0.00015055
0.000168
0.00018633
0.00020548
0.00022544
0.00024616
0.00026764
0.0002898
0.00031264
0.0003361
0.00036013
0.00038472
0.00040978
0.00043528
0.00046119
0.00048742
0.00051394
0.00054068
0.0005676
0.00059462
0.00062169
0.00064874
0.00067572
0.00070253
0.00072915
0.00075547
0.00078144
0.00080699
0.00083203
0.00085652
0.00088034
0.00090346
0.00092578
0.00094722
0.00096772
0.0009872
0.00100556
0.00102275
0.00103869
0.00105328
0.00106646
0.00107815
0.00108828
0.00109675
0.00110351
0.00110848
0.00111156
0.00111272
0.00111184
0.00110888
0.00110377
0.00109642
0.00108677
0.00107476
0.00106033
0.0010434
0.00102392
0.00100183
0.00097707
0.00094958
0.00091933
0.00088624
0.00085028
0.00081139
0.00076955
0.00072469
0.0006768
0.00062583
0.00057175
0.00051453
0.00045415
0.00039059
0.00032382
0.00025383
0.0001806
0.00010414
2.442e-05
-5.854e-05
-0.00014476
-0.00023421
-0.00032691
-0.00042283
-0.00052195
-0.00062427
-0.00072974
-0.00083836
-0.00095007
-0.00106486
-0.00118269
-0.00130349
-0.00142725
-0.00155389
-0.00168338
-0.00181563
-0.00195062
-0.00208825
-0.00222847
-0.0023712
-0.00251636
-0.00266388
-0.00281367
-0.00296563
-0.0031197
-0.00327576
-0.00343371
-0.00359348
-0.00375493
-0.00391798
0.0040825
0.00424838
0.00441552
0.00458378
0.00475306
0.00492321
0.00509413
0.00526567
0.00543771
0.00561011
0.00578274
0.00595545
0.00612813
0.00630061
0.00647275
0.00664441
0.00681547
0.00698574
0.00715509
0.00732339
0.00749047
0.00765618
0.00782038
0.00798291
0.00814363
0.00830238
0.008459
0.00861337
0.0087653
0.00891469
0.00906133
0.00920513
0.00934591
0.00948352
0.00961785
0.00974872
0.009876
0.00999957
0.01011926
0.01023496
0.01034653
0.01045383
0.01055673
0.01065513
0.01074887
0.01083787
0.01092197
0.01100109
0.0110751
0.01114391
0.0112074
0.01126547
0.01131804
0.011365
0.01140627
0.01144177
0.01147141
0.01149512
0.01151283
0.01152447
0.01152999
0.0115293
0.01152239
0.01150919
0.01148964
0.01146374
0.01143143
0.01139269
0.0113475
0.01129584
0.0112377
0.01117307
0.01110194
0.01102433
0.01094024
0.01084968
0.01075269
0.01064927
0.01053946
0.0104233
0.01030082
0.01017208
0.01003713
0.00989601
0.00974881
0.00959556
0.00943637
0.0092713
0.00910042
0.00892385
0.00874166
0.00855395
0.00836082
0.00816238
0.00795875
0.00775004
0.00753636
0.00731785
0.00709463
0.00686683
0.00663461
0.00639808
0.0061574
0.00591273
0.00566419
0.00541198
0.00515621
0.00489709
0.00463474
0.00436936
0.00410111
0.00383017
0.00355668
0.00328088
0.00300289
0.00272292
0.00244117
0.00215779
0.00187298
0.00158693
0.00129984
0.00101188
0.00072325
0.00043414
0.00014475
-0.00014475
-0.00043414
-0.00072325
-0.00101188
-0.00129984
-0.00158693
-0.00187298
-0.00215779
-0.00244117
-0.00272292
-0.00300289
-0.00328088
-0.00355668
-0.00383017
-0.00410111
-0.00436936
-0.00463474
-0.00489709
-0.00515621
-0.00541198
-0.00566419
-0.00591273
-0.0061574
-0.00639808
-0.00663461
-0.00686683
-0.00709463
-0.00731785
-0.00753636
-0.00775004
-0.00795875
-0.00816238
-0.00836082
-0.00855395
-0.00874166
-0.00892385
-0.00910042
-0.0092713
-0.00943637
-0.00959556
-0.00974881
-0.00989601
-0.01003713
-0.01017208
-0.01030082
-0.0104233
-0.01053946
-0.01064927
-0.01075269
-0.01084968
-0.01094024
-0.01102433
-0.01110194
-0.01117307
-0.0112377
-0.01129584
-0.0113475
-0.01139269
-0.01143143
-0.01146374
-0.01148964
-0.01150919
-0.01152239
-0.0115293
-0.01152999
-0.01152447
-0.01151283
-0.01149512
-0.01147141
-0.01144177
-0.01140627
-0.011365
-0.01131804
-0.01126547
-0.0112074
-0.01114391
-0.0110751
-0.01100109
-0.01092197
-0.01083787
-0.01074887
-0.01065513
-0.01055673
-0.01045383
-0.01034653
-0.01023496
-0.01011926
-0.00999957
-0.009876
-0.00974872
-0.00961785
-0.00948352
-0.00934591
-0.00920513
-0.00906133
-0.00891469
-0.0087653
-0.00861337
-0.008459
-0.00830238
-0.00814363
-0.00798291
-0.00782038
-0.00765618
-0.00749047
-0.00732339
-0.00715509
-0.00698574
-0.00681547
-0.00664441
-0.00647275
-0.00630061
-0.00612813
-0.00595545
-0.00578274
-0.00561011
-0.00543771
-0.00526567
-0.00509413
-0.00492321
-0.00475306
-0.00458378
-0.00441552
-0.00424838
-0.0040825
0.00391798
0.00375493
0.00359348
0.00343371
0.00327576
0.0031197
0.00296563
0.00281367
0.00266388
0.00251636
0.0023712
0.00222847
0.00208825
0.00195062
0.00181563
0.00168338
0.00155389
0.00142725
0.00130349
0.00118269
0.00106486
0.00095007
0.00083836
0.00072974
0.00062427
0.00052195
0.00042283
0.00032691
0.00023421
0.00014476
5.854e-05
-2.442e-05
-0.00010414
-0.0001806
-0.00025383
-0.00032382
-0.00039059
-0.00045415
-0.00051453
-0.00057175
-0.00062583
-0.0006768
-0.00072469
-0.00076955
-0.00081139
-0.00085028
-0.00088624
-0.00091933
-0.00094958
-0.00097707
-0.00100183
-0.00102392
-0.0010434
-0.00106033
-0.00107476
-0.00108677
-0.00109642
-0.00110377
-0.00110888
-0.00111184
-0.00111272
-0.00111156
-0.00110848
-0.00110351
-0.00109675
-0.00108828
-0.00107815
-0.00106646
-0.00105328
-0.00103869
-0.00102275
-0.00100556
-0.0009872
-0.00096772
-0.00094722
-0.00092578
-0.00090346
-0.00088034
-0.00085652
-0.00083203
-0.00080699
-0.00078144
-0.00075547
-0.00072915
-0.00070253
-0.00067572
-0.00064874
-0.00062169
-0.00059462
-0.0005676
-0.00054068
-0.00051394
-0.00048742
-0.00046119
-0.00043528
-0.00040978
-0.00038472
-0.00036013
-0.0003361
-0.00031264
-0.0002898
-0.00026764
-0.00024616
-0.00022544
-0.00020548
-0.00018633
-0.000168
-0.00015055
-0.00013397
-0.00011829
-0.00010356
-8.976e-05
-7.692e-05
-6.505e-05
-5.417e-05
-4.427e-05
-3.539e-05
-2.749e-05
-2.06e-05
-1.472e-05
-9.83e-06
-5.94e-06
-3.04e-06
-1.11e-06
-1.6e-07
0
0
18

shape_id 2
num_samples 520
0.5
0
0
121
-0.5
0
0
248
0.5
0
0
121
-0.5
0
0
18

