# Pulseq sequence file
# Created by MATLAB mr toolbox

[VERSION]
major 1
minor 2
revision 0

# Format of blocks:
#  #  D RF  GX  GY  GZ ADC
[BLOCKS]
  1  0  1   0   0   0  0
  2  0  0   1   2   0  1
  3  0  0   3   4   0  1
  4  0  0   5   6   0  1
  5  0  0   7   8   0  1
  6  0  0   9  10   0  1
  7  0  0  11  12   0  1
  8  0  0  13  14   0  1
  9  0  0  15  16   0  1
 10  0  0  17  18   0  1
 11  0  0  19  20   0  1
 12  0  0  21  22   0  1
 13  0  0  23  24   0  1
 14  0  0  25  26   0  1
 15  0  0  27  28   0  1
 16  0  0  29  30   0  1
 17  0  0  31  32   0  1
 18  1  0   0   0   0  0
 19  0  1   0   0   0  0
 20  0  0  33  34   0  1
 21  0  0  35  36   0  1
 22  0  0  37  38   0  1
 23  0  0  39  40   0  1
 24  0  0  41  42   0  1
 25  0  0  43  44   0  1
 26  0  0  45  46   0  1
 27  0  0  47  48   0  1
 28  0  0  49  50   0  1
 29  0  0  51  52   0  1
 30  0  0  53  54   0  1
 31  0  0  55  56   0  1
 32  0  0  57  58   0  1
 33  0  0  59  60   0  1
 34  0  0  61  62   0  1
 35  0  0  63  64   0  1
 36  1  0   0   0   0  0
 37  0  1   0   0   0  0
 38  0  0  65  66   0  1
 39  0  0  67  68   0  1
 40  0  0  69  70   0  1
 41  0  0  71  72   0  1
 42  0  0  73  74   0  1
 43  0  0  75  76   0  1
 44  0  0  77  78   0  1
 45  0  0  79  80   0  1
 46  0  0  81  82   0  1
 47  0  0  83  84   0  1
 48  0  0  85  86   0  1
 49  0  0  87  88   0  1
 50  0  0  89  90   0  1
 51  0  0  91  92   0  1
 52  0  0  93  94   0  1
 53  0  0  95  96   0  1
 54  1  0   0   0   0  0
 55  0  1   0   0   0  0
 56  0  0  97  98   0  1
 57  0  0  99 100   0  1
 58  0  0 101 102   0  1
 59  0  0 103 104   0  1
 60  0  0 105 106   0  1
 61  0  0 107 108   0  1
 62  0  0 109 110   0  1
 63  0  0 111 112   0  1
 64  0  0 113 114   0  1
 65  0  0 115 116   0  1
 66  0  0 117 118   0  1
 67  0  0 119 120   0  1
 68  0  0 121 122   0  1
 69  0  0 123 124   0  1
 70  0  0 125 126   0  1
 71  0  0 127 128   0  1
 72  1  0   0   0   0  0
 73  0  1   0   0   0  0
 74  0  0 129 130   0  1
 75  0  0 131 132   0  1
 76  0  0 133 134   0  1
 77  0  0 135 136   0  1
 78  0  0 137 138   0  1
 79  0  0 139 140   0  1
 80  0  0 141 142   0  1
 81  0  0 143 144   0  1
 82  0  0 145 146   0  1
 83  0  0 147 148   0  1
 84  0  0 149 150   0  1
 85  0  0 151 152   0  1
 86  0  0 153 154   0  1
 87  0  0 155 156   0  1
 88  0  0 157 158   0  1
 89  0  0 159 160   0  1
 90  1  0   0   0   0  0
 91  0  1   0   0   0  0
 92  0  0 161 162   0  1
 93  0  0 163 164   0  1
 94  0  0 165 166   0  1
 95  0  0 167 168   0  1
 96  0  0 169 170   0  1
 97  0  0 171 172   0  1
 98  0  0 173 174   0  1
 99  0  0 175 176   0  1
100  0  0 177 178   0  1
101  0  0 179 180   0  1
102  0  0 181 182   0  1
103  0  0 183 184   0  1
104  0  0 185 186   0  1
105  0  0 187 188   0  1
106  0  0 189 190   0  1
107  0  0 191 192   0  1
108  1  0   0   0   0  0
109  0  1   0   0   0  0
110  0  0 193 194   0  1
111  0  0 195 196   0  1
112  0  0 197 198   0  1
113  0  0 199 200   0  1
114  0  0 201 202   0  1
115  0  0 203 204   0  1
116  0  0 205 206   0  1
117  0  0 207 208   0  1
118  0  0 209 210   0  1
119  0  0 211 212   0  1
120  0  0 213 214   0  1
121  0  0 215 216   0  1
122  0  0 217 218   0  1
123  0  0 219 220   0  1
124  0  0 221 222   0  1
125  0  0 223 224   0  1
126  1  0   0   0   0  0
127  0  1   0   0   0  0
128  0  0 225 226   0  1
129  0  0 227 228   0  1
130  0  0 229 230   0  1
131  0  0 231 232   0  1
132  0  0 233 234   0  1
133  0  0 235 236   0  1
134  0  0 237 238   0  1
135  0  0 239 240   0  1
136  0  0 241 242   0  1
137  0  0 243 244   0  1
138  0  0 245 246   0  1
139  0  0 247 248   0  1
140  0  0 249 250   0  1
141  0  0 251 252   0  1
142  0  0 253 254   0  1
143  0  0 255 256   0  1
144  1  0   0   0   0  0
145  0  1   0   0   0  0
146  0  0 257 258   0  1
147  0  0 259 260   0  1
148  0  0 261 262   0  1
149  0  0 263 264   0  1
150  0  0 265 266   0  1
151  0  0 267 268   0  1
152  0  0 269 270   0  1
153  0  0 271 272   0  1
154  0  0 273 274   0  1
155  0  0 275 276   0  1
156  0  0 277 278   0  1
157  0  0 279 280   0  1
158  0  0 281 282   0  1
159  0  0 283 284   0  1
160  0  0 285 286   0  1
161  0  0 287 288   0  1
162  1  0   0   0   0  0
163  0  1   0   0   0  0
164  0  0 289 290   0  1
165  0  0 291 292   0  1
166  0  0 293 294   0  1
167  0  0 295 296   0  1
168  0  0 297 298   0  1
169  0  0 299 300   0  1
170  0  0 301 302   0  1
171  0  0 303 304   0  1
172  0  0 305 306   0  1
173  0  0 307 308   0  1
174  0  0 309 310   0  1
175  0  0 311 312   0  1
176  0  0 313 314   0  1
177  0  0 315 316   0  1
178  0  0 317 318   0  1
179  0  0 319 320   0  1
180  1  0   0   0   0  0
181  0  1   0   0   0  0
182  0  0 321 322   0  1
183  0  0 323 324   0  1
184  0  0 325 326   0  1
185  0  0 327 328   0  1
186  0  0 329 330   0  1
187  0  0 331 332   0  1
188  0  0 333 334   0  1
189  0  0 335 336   0  1
190  0  0 337 338   0  1
191  0  0 339 340   0  1
192  0  0 341 342   0  1
193  0  0 343 344   0  1
194  0  0 345 346   0  1
195  0  0 347 348   0  1
196  0  0 349 350   0  1
197  0  0 351 352   0  1
198  1  0   0   0   0  0
199  0  1   0   0   0  0
200  0  0 353 354   0  1
201  0  0 355 356   0  1
202  0  0 357 358   0  1
203  0  0 359 360   0  1
204  0  0 361 362   0  1
205  0  0 363 364   0  1
206  0  0 365 366   0  1
207  0  0 367 368   0  1
208  0  0 369 370   0  1
209  0  0 371 372   0  1
210  0  0 373 374   0  1
211  0  0 375 376   0  1
212  0  0 377 378   0  1
213  0  0 379 380   0  1
214  0  0 381 382   0  1
215  0  0 383 384   0  1
216  1  0   0   0   0  0
217  0  1   0   0   0  0
218  0  0 385 386   0  1
219  0  0 387 388   0  1
220  0  0 389 390   0  1
221  0  0 391 392   0  1
222  0  0 393 394   0  1
223  0  0 395 396   0  1
224  0  0 397 398   0  1
225  0  0 399 400   0  1
226  0  0 401 402   0  1
227  0  0 403 404   0  1
228  0  0 405 406   0  1
229  0  0 407 408   0  1
230  0  0 409 410   0  1
231  0  0 411 412   0  1
232  0  0 413 414   0  1
233  0  0 415 416   0  1
234  1  0   0   0   0  0
235  0  1   0   0   0  0
236  0  0 417 418   0  1
237  0  0 419 420   0  1
238  0  0 421 422   0  1
239  0  0 423 424   0  1
240  0  0 425 426   0  1
241  0  0 427 428   0  1
242  0  0 429 430   0  1
243  0  0 431 432   0  1
244  0  0 433 434   0  1
245  0  0 435 436   0  1
246  0  0 437 438   0  1
247  0  0 439 440   0  1
248  0  0 441 442   0  1
249  0  0 443 444   0  1
250  0  0 445 446   0  1
251  0  0 447 448   0  1
252  1  0   0   0   0  0
253  0  1   0   0   0  0
254  0  0 449 450   0  1
255  0  0 451 452   0  1
256  0  0 453 454   0  1
257  0  0 455 456   0  1
258  0  0 457 458   0  1
259  0  0 459 460   0  1
260  0  0 461 462   0  1
261  0  0 463 464   0  1
262  0  0 465 466   0  1
263  0  0 467 468   0  1
264  0  0 469 470   0  1
265  0  0 471 472   0  1
266  0  0 473 474   0  1
267  0  0 475 476   0  1
268  0  0 477 478   0  1
269  0  0 479 480   0  1
270  1  0   0   0   0  0
271  0  1   0   0   0  0
272  0  0 481 482   0  1
273  0  0 483 484   0  1
274  0  0 485 486   0  1
275  0  0 487 488   0  1
276  0  0 489 490   0  1
277  0  0 491 492   0  1
278  0  0 493 494   0  1
279  0  0 495 496   0  1
280  0  0 497 498   0  1
281  0  0 499 500   0  1
282  0  0 501 502   0  1
283  0  0 503 504   0  1
284  0  0 505 506   0  1
285  0  0 507 508   0  1
286  0  0 509 510   0  1
287  0  0 511 512   0  1
288  1  0   0   0   0  0

# Format of RF events:
# id amplitude mag_id phase_id delay freq phase
# ..        Hz   ....     ....    us   Hz   rad
[RF]
1          250 1 2 0 0 0

# Format of trapezoid gradients:
# id amplitude rise flat fall delay
# ..      Hz/m   us   us   us    us
[TRAP]
 1      -51.348  50  900  50   0
 2      117.083  50  900  50   0
 3     -159.548  50  900  50   0
 4       40.164  50  900  50   0
 5      38.3147  50  900  50   0
 6      208.127  50  900  50   0
 7      33.0785  50  900  50   0
 8      106.562  50  900  50   0
 9     -147.774  50  900  50   0
10      137.774  50  900  50   0
11     -241.204  50  900  50   0
12     -16.4324  50  900  50   0
13     -245.786  50  900  50   0
14      79.7341  50  900  50   0
15      7.56141  50  900  50   0
16      284.346  50  900  50   0
17     -46.0449  50  900  50   0
18      212.416  50  900  50   0
19      2.23456  50  900  50   0
20      -154.32  50  900  50   0
21     -66.6898  50  900  50   0
22      29.0612  50  900  50   0
23      58.3906  50  900  50   0
24     -69.9514  50  900  50   0
25      2.96654  50  900  50   0
26      18.2974  50  900  50   0
27      76.8095  50  900  50   0
28      13.5498  50  900  50   0
29     -38.7986  50  900  50   0
30     -63.3355  50  900  50   0
31       252.43  50  900  50   0
32     -30.2993  50  900  50   0
33      102.715  50  900  50   0
34     -158.339  50  900  50   0
35      53.1153  50  900  50   0
36     -257.658  50  900  50   0
37     -29.1577  50  900  50   0
38     -250.228  50  900  50   0
39     -219.172  50  900  50   0
40     -354.443  50  900  50   0
41     -115.119  50  900  50   0
42     -220.635  50  900  50   0
43     -94.7195  50  900  50   0
44     -134.367  50  900  50   0
45     -323.429  50  900  50   0
46        67.93  50  900  50   0
47     -114.656  50  900  50   0
48     -47.8683  50  900  50   0
49     -192.778  50  900  50   0
50     -74.8489  50  900  50   0
51      91.3293  50  900  50   0
52      294.994  50  900  50   0
53      175.914  50  900  50   0
54      352.199  50  900  50   0
55      304.044  50  900  50   0
56      157.451  50  900  50   0
57      173.956  50  900  50   0
58       28.536  50  900  50   0
59      157.094  50  900  50   0
60     -68.1696  50  900  50   0
61      89.7488  50  900  50   0
62     -355.792  50  900  50   0
63      4.52225  50  900  50   0
64     -352.717  50  900  50   0
65      252.327  50  900  50   0
66      52.7414  50  900  50   0
67      508.546  50  900  50   0
68      91.2746  50  900  50   0
69      336.017  50  900  50   0
70      -51.365  50  900  50   0
71      421.977  50  900  50   0
72      3.91814  50  900  50   0
73      287.314  50  900  50   0
74     -247.392  50  900  50   0
75      260.759  50  900  50   0
76     -443.244  50  900  50   0
77      204.887  50  900  50   0
78      -161.38  50  900  50   0
79      226.546  50  900  50   0
80     -80.8913  50  900  50   0
81     -60.9876  50  900  50   0
82      124.323  50  900  50   0
83      -77.802  50  900  50   0
84      32.1701  50  900  50   0
85     -114.481  50  900  50   0
86      226.717  50  900  50   0
87     -64.4962  50  900  50   0
88      298.223  50  900  50   0
89      41.1499  50  900  50   0
90      359.965  50  900  50   0
91      -54.042  50  900  50   0
92      371.725  50  900  50   0
93     -416.729  50  900  50   0
94      143.966  50  900  50   0
95     -250.626  50  900  50   0
96      436.676  50  900  50   0
97      125.467  50  900  50   0
98      198.978  50  900  50   0
99      190.712  50  900  50   0
100      305.538  50  900  50   0
101      52.6991  50  900  50   0
102      109.927  50  900  50   0
103      137.546  50  900  50   0
104      98.9889  50  900  50   0
105      299.536  50  900  50   0
106      -123.98  50  900  50   0
107      120.829  50  900  50   0
108     -208.475  50  900  50   0
109      402.968  50  900  50   0
110     -229.842  50  900  50   0
111       213.15  50  900  50   0
112     -346.352  50  900  50   0
113      141.062  50  900  50   0
114     -372.851  50  900  50   0
115     -51.4792  50  900  50   0
116     -426.155  50  900  50   0
117      39.2822  50  900  50   0
118     -428.545  50  900  50   0
119      193.812  50  900  50   0
120     -488.582  50  900  50   0
121      89.0195  50  900  50   0
122     -493.233  50  900  50   0
123     -138.491  50  900  50   0
124     -485.425  50  900  50   0
125     -63.9191  50  900  50   0
126     -494.808  50  900  50   0
127      7.62485  50  900  50   0
128     -498.974  50  900  50   0
129     -198.487  50  900  50   0
130     -173.683  50  900  50   0
131       6.7128  50  900  50   0
132     -167.724  50  900  50   0
133      90.3075  50  900  50   0
134     -86.7066  50  900  50   0
135      44.6603  50  900  50   0
136      18.9781  50  900  50   0
137    -0.713446  50  900  50   0
138     -89.0769  50  900  50   0
139      126.185  50  900  50   0
140      8.58525  50  900  50   0
141       402.76  50  900  50   0
142     -89.9004  50  900  50   0
143      343.382  50  900  50   0
144      37.0609  50  900  50   0
145      468.438  50  900  50   0
146      284.076  50  900  50   0
147       522.75  50  900  50   0
148      346.987  50  900  50   0
149      455.662  50  900  50   0
150       446.24  50  900  50   0
151      450.097  50  900  50   0
152      373.583  50  900  50   0
153      419.472  50  900  50   0
154      80.4972  50  900  50   0
155      490.374  50  900  50   0
156      166.267  50  900  50   0
157      509.634  50  900  50   0
158    -0.242823  50  900  50   0
159      546.297  50  900  50   0
160      -116.62  50  900  50   0
161      228.137  50  900  50   0
162      127.597  50  900  50   0
163      235.287  50  900  50   0
164      9.65706  50  900  50   0
165      9.31103  50  900  50   0
166      191.875  50  900  50   0
167      27.2883  50  900  50   0
168      263.715  50  900  50   0
169      201.083  50  900  50   0
170      413.462  50  900  50   0
171      85.5196  50  900  50   0
172      494.714  50  900  50   0
173      -150.92  50  900  50   0
174      384.905  50  900  50   0
175     -320.304  50  900  50   0
176      321.838  50  900  50   0
177     -230.968  50  900  50   0
178      160.473  50  900  50   0
179     -153.892  50  900  50   0
180      51.7308  50  900  50   0
181     -301.523  50  900  50   0
182     -27.5582  50  900  50   0
183     -249.248  50  900  50   0
184      53.1888  50  900  50   0
185     -401.421  50  900  50   0
186      213.782  50  900  50   0
187     -487.989  50  900  50   0
188      46.2567  50  900  50   0
189     -477.717  50  900  50   0
190      138.913  50  900  50   0
191     -481.898  50  900  50   0
192     -60.7094  50  900  50   0
193      112.787  50  900  50   0
194      152.441  50  900  50   0
195      310.211  50  900  50   0
196      90.9001  50  900  50   0
197      387.987  50  900  50   0
198      149.585  50  900  50   0
199      296.385  50  900  50   0
200     -37.2242  50  900  50   0
201      368.853  50  900  50   0
202     -173.995  50  900  50   0
203     -23.4257  50  900  50   0
204     -313.539  50  900  50   0
205     -142.383  50  900  50   0
206     -396.549  50  900  50   0
207     -104.562  50  900  50   0
208     -329.424  50  900  50   0
209     -86.1825  50  900  50   0
210     -154.939  50  900  50   0
211      87.2371  50  900  50   0
212     -315.728  50  900  50   0
213     -40.2157  50  900  50   0
214     -22.4715  50  900  50   0
215      -145.44  50  900  50   0
216      163.656  50  900  50   0
217     -130.803  50  900  50   0
218     -62.0097  50  900  50   0
219      156.231  50  900  50   0
220     -74.9104  50  900  50   0
221      312.166  50  900  50   0
222      222.238  50  900  50   0
223       377.01  50  900  50   0
224      227.146  50  900  50   0
225      51.9441  50  900  50   0
226     -32.0921  50  900  50   0
227     -137.157  50  900  50   0
228     -262.146  50  900  50   0
229     -259.314  50  900  50   0
230     -284.261  50  900  50   0
231     -330.823  50  900  50   0
232     -141.138  50  900  50   0
233     -404.627  50  900  50   0
234      32.3391  50  900  50   0
235     -215.415  50  900  50   0
236      184.759  50  900  50   0
237     -30.0264  50  900  50   0
238      377.216  50  900  50   0
239     -1.76697  50  900  50   0
240      453.084  50  900  50   0
241      12.2981  50  900  50   0
242       526.33  50  900  50   0
243     -92.8242  50  900  50   0
244      442.333  50  900  50   0
245     -57.5251  50  900  50   0
246      511.161  50  900  50   0
247     -222.698  50  900  50   0
248      338.356  50  900  50   0
249     -307.071  50  900  50   0
250      504.183  50  900  50   0
251     -135.049  50  900  50   0
252      511.876  50  900  50   0
253     -208.627  50  900  50   0
254       531.07  50  900  50   0
255     -437.532  50  900  50   0
256      467.175  50  900  50   0
257      181.251  50  900  50   0
258      119.883  50  900  50   0
259      368.254  50  900  50   0
260      374.512  50  900  50   0
261       277.17  50  900  50   0
262      496.759  50  900  50   0
263      82.9137  50  900  50   0
264        351.4  50  900  50   0
265      106.624  50  900  50   0
266      420.446  50  900  50   0
267      347.769  50  900  50   0
268      301.815  50  900  50   0
269      157.267  50  900  50   0
270      38.9941  50  900  50   0
271      32.9569  50  900  50   0
272      84.9651  50  900  50   0
273      89.0783  50  900  50   0
274     -128.305  50  900  50   0
275      171.459  50  900  50   0
276     -179.009  50  900  50   0
277     -25.8366  50  900  50   0
278     -242.533  50  900  50   0
279      293.891  50  900  50   0
280     -275.156  50  900  50   0
281      114.249  50  900  50   0
282      -397.56  50  900  50   0
283      245.381  50  900  50   0
284     -400.673  50  900  50   0
285       360.97  50  900  50   0
286     -395.785  50  900  50   0
287       343.54  50  900  50   0
288     -464.079  50  900  50   0
289      65.6635  50  900  50   0
290      -225.17  50  900  50   0
291      284.188  50  900  50   0
292     -531.556  50  900  50   0
293      446.447  50  900  50   0
294     -479.158  50  900  50   0
295      468.645  50  900  50   0
296     -236.933  50  900  50   0
297      268.432  50  900  50   0
298     -164.192  50  900  50   0
299      220.248  50  900  50   0
300     -242.544  50  900  50   0
301        222.3  50  900  50   0
302     -99.0732  50  900  50   0
303      205.244  50  900  50   0
304     -4.64715  50  900  50   0
305      487.156  50  900  50   0
306     -94.7609  50  900  50   0
307        465.8  50  900  50   0
308     -168.567  50  900  50   0
309        509.7  50  900  50   0
310     -472.661  50  900  50   0
311      544.336  50  900  50   0
312     -536.128  50  900  50   0
313      539.909  50  900  50   0
314     -378.534  50  900  50   0
315      539.209  50  900  50   0
316     -195.136  50  900  50   0
317      551.801  50  900  50   0
318     -58.2668  50  900  50   0
319       552.67  50  900  50   0
320      91.1198  50  900  50   0
321      -255.71  50  900  50   0
322     -90.8723  50  900  50   0
323     -193.987  50  900  50   0
324      90.1005  50  900  50   0
325     -344.035  50  900  50   0
326     -15.8522  50  900  50   0
327     -322.829  50  900  50   0
328      101.649  50  900  50   0
329     -339.181  50  900  50   0
330       183.88  50  900  50   0
331      -70.635  50  900  50   0
332      259.726  50  900  50   0
333     -57.4807  50  900  50   0
334      100.551  50  900  50   0
335     -133.742  50  900  50   0
336      333.491  50  900  50   0
337      -280.73  50  900  50   0
338      236.782  50  900  50   0
339      -412.81  50  900  50   0
340      300.823  50  900  50   0
341     -380.961  50  900  50   0
342      97.9893  50  900  50   0
343     -411.364  50  900  50   0
344     -45.4213  50  900  50   0
345     -512.575  50  900  50   0
346      211.019  50  900  50   0
347     -546.106  50  900  50   0
348      402.163  50  900  50   0
349      -529.31  50  900  50   0
350      507.658  50  900  50   0
351     -508.711  50  900  50   0
352      440.055  50  900  50   0
353     -59.4845  50  900  50   0
354     -95.8277  50  900  50   0
355     -106.343  50  900  50   0
356     -240.544  50  900  50   0
357      5.90745  50  900  50   0
358     -344.499  50  900  50   0
359     -109.973  50  900  50   0
360     -451.988  50  900  50   0
361     -275.617  50  900  50   0
362     -447.095  50  900  50   0
363     -198.477  50  900  50   0
364      -319.82  50  900  50   0
365     -310.578  50  900  50   0
366     -510.729  50  900  50   0
367     -462.081  50  900  50   0
368     -478.237  50  900  50   0
369     -436.362  50  900  50   0
370     -393.519  50  900  50   0
371     -326.082  50  900  50   0
372     -300.674  50  900  50   0
373     -452.273  50  900  50   0
374      -302.55  50  900  50   0
375     -482.624  50  900  50   0
376     -139.521  50  900  50   0
377     -488.716  50  900  50   0
378      -16.511  50  900  50   0
379     -554.334  50  900  50   0
380      138.714  50  900  50   0
381     -555.323  50  900  50   0
382      278.426  50  900  50   0
383     -461.017  50  900  50   0
384      77.2814  50  900  50   0
385     -284.055  50  900  50   0
386      163.767  50  900  50   0
387      132.355  50  900  50   0
388      247.381  50  900  50   0
389      261.514  50  900  50   0
390      388.721  50  900  50   0
391     -63.4021  50  900  50   0
392      178.697  50  900  50   0
393     -196.249  50  900  50   0
394     -29.6868  50  900  50   0
395     -138.946  50  900  50   0
396      139.701  50  900  50   0
397      -40.005  50  900  50   0
398      330.097  50  900  50   0
399      28.4304  50  900  50   0
400      288.296  50  900  50   0
401     -284.231  50  900  50   0
402      397.615  50  900  50   0
403     -275.935  50  900  50   0
404      533.967  50  900  50   0
405     -149.626  50  900  50   0
406      533.945  50  900  50   0
407      -23.226  50  900  50   0
408      443.368  50  900  50   0
409     -158.375  50  900  50   0
410      471.907  50  900  50   0
411     -220.811  50  900  50   0
412      412.924  50  900  50   0
413      124.826  50  900  50   0
414      531.652  50  900  50   0
415      161.572  50  900  50   0
416      470.643  50  900  50   0
417      95.7924  50  900  50   0
418       30.946  50  900  50   0
419       380.17  50  900  50   0
420      58.4039  50  900  50   0
421      449.009  50  900  50   0
422      204.948  50  900  50   0
423      475.255  50  900  50   0
424     -22.6256  50  900  50   0
425      502.262  50  900  50   0
426      -174.44  50  900  50   0
427       511.05  50  900  50   0
428     -87.4388  50  900  50   0
429      513.646  50  900  50   0
430       65.246  50  900  50   0
431      406.581  50  900  50   0
432     -15.8072  50  900  50   0
433      454.851  50  900  50   0
434      48.0676  50  900  50   0
435      416.808  50  900  50   0
436      125.854  50  900  50   0
437      356.321  50  900  50   0
438     -64.3835  50  900  50   0
439     -14.0254  50  900  50   0
440     -145.942  50  900  50   0
441     -238.733  50  900  50   0
442      52.0405  50  900  50   0
443     -16.1973  50  900  50   0
444     -253.886  50  900  50   0
445     -143.579  50  900  50   0
446      -151.16  50  900  50   0
447     -245.932  50  900  50   0
448     -365.428  50  900  50   0
449     -118.206  50  900  50   0
450      55.6748  50  900  50   0
451     -185.032  50  900  50   0
452     -101.479  50  900  50   0
453     -338.964  50  900  50   0
454     -99.3673  50  900  50   0
455     -330.433  50  900  50   0
456      45.6516  50  900  50   0
457     -263.232  50  900  50   0
458     -37.2419  50  900  50   0
459     -184.312  50  900  50   0
460      271.325  50  900  50   0
461     -43.4098  50  900  50   0
462      8.36412  50  900  50   0
463     -125.864  50  900  50   0
464     -10.2091  50  900  50   0
465     -324.083  50  900  50   0
466     -310.536  50  900  50   0
467     -427.517  50  900  50   0
468     -222.954  50  900  50   0
469     -376.966  50  900  50   0
470     -364.653  50  900  50   0
471     -368.355  50  900  50   0
472     -480.395  50  900  50   0
473     -299.504  50  900  50   0
474     -381.721  50  900  50   0
475     -67.7068  50  900  50   0
476     -385.202  50  900  50   0
477      114.195  50  900  50   0
478     -289.366  50  900  50   0
479      257.521  50  900  50   0
480     -451.066  50  900  50   0
481      3.35178  50  900  50   0
482      109.737  50  900  50   0
483      59.0504  50  900  50   0
484      175.939  50  900  50   0
485     -128.754  50  900  50   0
486      235.594  50  900  50   0
487     -145.335  50  900  50   0
488      406.211  50  900  50   0
489      83.4958  50  900  50   0
490      437.272  50  900  50   0
491     -81.2077  50  900  50   0
492      378.154  50  900  50   0
493     -378.762  50  900  50   0
494      169.609  50  900  50   0
495     -204.081  50  900  50   0
496      24.3204  50  900  50   0
497     -145.684  50  900  50   0
498     -42.4996  50  900  50   0
499     -408.025  50  900  50   0
500      72.0619  50  900  50   0
501     -471.165  50  900  50   0
502      -52.497  50  900  50   0
503     -555.534  50  900  50   0
504     -333.929  50  900  50   0
505     -555.443  50  900  50   0
506      -252.72  50  900  50   0
507     -554.129  50  900  50   0
508     -407.194  50  900  50   0
509      -355.53  50  900  50   0
510     -209.193  50  900  50   0
511     -486.006  50  900  50   0
512     -401.192  50  900  50   0

# Format of ADC events:
# id num dwell delay freq phase
# ..  ..    ns    us   Hz   rad
[ADC]
1 1 1000000 50 0 0

# Format of delays:
# id delay (us)
[DELAYS]
1 3000000

# Sequence Shapes
[SHAPES]

shape_id 1
num_samples 1000
1
0
0
997

shape_id 2
num_samples 1000
0
0
998

