# Pulseq sequence file
# Created by MATLAB mr toolbox

[VERSION]
major 1
minor 2
revision 1

# Format of blocks:
#  #  D RF  GX  GY  GZ ADC
[BLOCKS]
  1  0  1   0   0   0  0
  2  0  0   1   2   0  1
  3  0  0   3   4   0  1
  4  0  0   5   6   0  1
  5  0  0   7   8   0  1
  6  0  0   9  10   0  1
  7  0  0  11  12   0  1
  8  0  0  13  14   0  1
  9  0  0  15  16   0  1
 10  0  0  17  18   0  1
 11  0  0  19  20   0  1
 12  0  0  21  22   0  1
 13  0  0  23  24   0  1
 14  0  0  25  26   0  1
 15  0  0  27  28   0  1
 16  0  0  29  30   0  1
 17  0  0  31  32   0  1
 18  1  0   0   0   0  0
 19  0  1   0   0   0  0
 20  0  0  33  34   0  1
 21  0  0  35  36   0  1
 22  0  0  37  38   0  1
 23  0  0  39  40   0  1
 24  0  0  41  42   0  1
 25  0  0  43  44   0  1
 26  0  0  45  46   0  1
 27  0  0  47  48   0  1
 28  0  0  49  50   0  1
 29  0  0  51  52   0  1
 30  0  0  53  54   0  1
 31  0  0  55  56   0  1
 32  0  0  57  58   0  1
 33  0  0  59  60   0  1
 34  0  0  61  62   0  1
 35  0  0  63  64   0  1
 36  1  0   0   0   0  0
 37  0  1   0   0   0  0
 38  0  0  65  66   0  1
 39  0  0  67  68   0  1
 40  0  0  69  70   0  1
 41  0  0  71  72   0  1
 42  0  0  73  74   0  1
 43  0  0  75  76   0  1
 44  0  0  77  78   0  1
 45  0  0  79  80   0  1
 46  0  0  81  82   0  1
 47  0  0  83  84   0  1
 48  0  0  85  86   0  1
 49  0  0  87  88   0  1
 50  0  0  89  90   0  1
 51  0  0  91  92   0  1
 52  0  0  93  94   0  1
 53  0  0  95  96   0  1
 54  1  0   0   0   0  0
 55  0  1   0   0   0  0
 56  0  0  97  98   0  1
 57  0  0  99 100   0  1
 58  0  0 101 102   0  1
 59  0  0 103 104   0  1
 60  0  0 105 106   0  1
 61  0  0 107 108   0  1
 62  0  0 109 110   0  1
 63  0  0 111 112   0  1
 64  0  0 113 114   0  1
 65  0  0 115 116   0  1
 66  0  0 117 118   0  1
 67  0  0 119 120   0  1
 68  0  0 121 122   0  1
 69  0  0 123 124   0  1
 70  0  0 125 126   0  1
 71  0  0 127 128   0  1
 72  1  0   0   0   0  0
 73  0  1   0   0   0  0
 74  0  0 129 130   0  1
 75  0  0 131 132   0  1
 76  0  0 133 134   0  1
 77  0  0 135 136   0  1
 78  0  0 137 138   0  1
 79  0  0 139 140   0  1
 80  0  0 141 142   0  1
 81  0  0 143 144   0  1
 82  0  0 145 146   0  1
 83  0  0 147 148   0  1
 84  0  0 149 150   0  1
 85  0  0 151 152   0  1
 86  0  0 153 154   0  1
 87  0  0 155 156   0  1
 88  0  0 157 158   0  1
 89  0  0 159 160   0  1
 90  1  0   0   0   0  0
 91  0  1   0   0   0  0
 92  0  0 161 162   0  1
 93  0  0 163 164   0  1
 94  0  0 165 166   0  1
 95  0  0 167 168   0  1
 96  0  0 169 170   0  1
 97  0  0 171 172   0  1
 98  0  0 173 174   0  1
 99  0  0 175 176   0  1
100  0  0 177 178   0  1
101  0  0 179 180   0  1
102  0  0 181 182   0  1
103  0  0 183 184   0  1
104  0  0 185 186   0  1
105  0  0 187 188   0  1
106  0  0 189 190   0  1
107  0  0 191 192   0  1
108  1  0   0   0   0  0
109  0  1   0   0   0  0
110  0  0 193 194   0  1
111  0  0 195 196   0  1
112  0  0 197 198   0  1
113  0  0 199 200   0  1
114  0  0 201 202   0  1
115  0  0 203 204   0  1
116  0  0 205 206   0  1
117  0  0 207 208   0  1
118  0  0 209 210   0  1
119  0  0 211 212   0  1
120  0  0 213 214   0  1
121  0  0 215 216   0  1
122  0  0 217 218   0  1
123  0  0 219 220   0  1
124  0  0 221 222   0  1
125  0  0 223 224   0  1
126  1  0   0   0   0  0
127  0  1   0   0   0  0
128  0  0 225 226   0  1
129  0  0 227 228   0  1
130  0  0 229 230   0  1
131  0  0 231 232   0  1
132  0  0 233 234   0  1
133  0  0 235 236   0  1
134  0  0 237 238   0  1
135  0  0 239 240   0  1
136  0  0 241 242   0  1
137  0  0 243 244   0  1
138  0  0 245 246   0  1
139  0  0 247 248   0  1
140  0  0 249 250   0  1
141  0  0 251 252   0  1
142  0  0 253 254   0  1
143  0  0 255 256   0  1
144  1  0   0   0   0  0
145  0  1   0   0   0  0
146  0  0 257 258   0  1
147  0  0 259 260   0  1
148  0  0 261 262   0  1
149  0  0 263 264   0  1
150  0  0 265 266   0  1
151  0  0 267 268   0  1
152  0  0 269 270   0  1
153  0  0 271 272   0  1
154  0  0 273 274   0  1
155  0  0 275 276   0  1
156  0  0 277 278   0  1
157  0  0 279 280   0  1
158  0  0 281 282   0  1
159  0  0 283 284   0  1
160  0  0 285 286   0  1
161  0  0 287 288   0  1
162  1  0   0   0   0  0
163  0  1   0   0   0  0
164  0  0 289 290   0  1
165  0  0 291 292   0  1
166  0  0 293 294   0  1
167  0  0 295 296   0  1
168  0  0 297 298   0  1
169  0  0 299 300   0  1
170  0  0 301 302   0  1
171  0  0 303 304   0  1
172  0  0 305 306   0  1
173  0  0 307 308   0  1
174  0  0 309 310   0  1
175  0  0 311 312   0  1
176  0  0 313 314   0  1
177  0  0 315 316   0  1
178  0  0 317 318   0  1
179  0  0 319 320   0  1
180  1  0   0   0   0  0
181  0  1   0   0   0  0
182  0  0 321 322   0  1
183  0  0 323 324   0  1
184  0  0 325 326   0  1
185  0  0 327 328   0  1
186  0  0 329 330   0  1
187  0  0 331 332   0  1
188  0  0 333 334   0  1
189  0  0 335 336   0  1
190  0  0 337 338   0  1
191  0  0 339 340   0  1
192  0  0 341 342   0  1
193  0  0 343 344   0  1
194  0  0 345 346   0  1
195  0  0 347 348   0  1
196  0  0 349 350   0  1
197  0  0 351 352   0  1
198  1  0   0   0   0  0
199  0  1   0   0   0  0
200  0  0 353 354   0  1
201  0  0 355 356   0  1
202  0  0 357 358   0  1
203  0  0 359 360   0  1
204  0  0 361 362   0  1
205  0  0 363 364   0  1
206  0  0 365 366   0  1
207  0  0 367 368   0  1
208  0  0 369 370   0  1
209  0  0 371 372   0  1
210  0  0 373 374   0  1
211  0  0 375 376   0  1
212  0  0 377 378   0  1
213  0  0 379 380   0  1
214  0  0 381 382   0  1
215  0  0 383 384   0  1
216  1  0   0   0   0  0
217  0  1   0   0   0  0
218  0  0 385 386   0  1
219  0  0 387 388   0  1
220  0  0 389 390   0  1
221  0  0 391 392   0  1
222  0  0 393 394   0  1
223  0  0 395 396   0  1
224  0  0 397 398   0  1
225  0  0 399 400   0  1
226  0  0 401 402   0  1
227  0  0 403 404   0  1
228  0  0 405 406   0  1
229  0  0 407 408   0  1
230  0  0 409 410   0  1
231  0  0 411 412   0  1
232  0  0 413 414   0  1
233  0  0 415 416   0  1
234  1  0   0   0   0  0
235  0  1   0   0   0  0
236  0  0 417 418   0  1
237  0  0 419 420   0  1
238  0  0 421 422   0  1
239  0  0 423 424   0  1
240  0  0 425 426   0  1
241  0  0 427 428   0  1
242  0  0 429 430   0  1
243  0  0 431 432   0  1
244  0  0 433 434   0  1
245  0  0 435 436   0  1
246  0  0 437 438   0  1
247  0  0 439 440   0  1
248  0  0 441 442   0  1
249  0  0 443 444   0  1
250  0  0 445 446   0  1
251  0  0 447 448   0  1
252  1  0   0   0   0  0
253  0  1   0   0   0  0
254  0  0 449 450   0  1
255  0  0 451 452   0  1
256  0  0 453 454   0  1
257  0  0 455 456   0  1
258  0  0 457 458   0  1
259  0  0 459 460   0  1
260  0  0 461 462   0  1
261  0  0 463 464   0  1
262  0  0 465 466   0  1
263  0  0 467 468   0  1
264  0  0 469 470   0  1
265  0  0 471 472   0  1
266  0  0 473 474   0  1
267  0  0 475 476   0  1
268  0  0 477 478   0  1
269  0  0 479 480   0  1
270  1  0   0   0   0  0
271  0  1   0   0   0  0
272  0  0 481 482   0  1
273  0  0 483 484   0  1
274  0  0 485 486   0  1
275  0  0 487 488   0  1
276  0  0 489 490   0  1
277  0  0 491 492   0  1
278  0  0 493 494   0  1
279  0  0 495 496   0  1
280  0  0 497 498   0  1
281  0  0 499 500   0  1
282  0  0 501 502   0  1
283  0  0 503 504   0  1
284  0  0 505 506   0  1
285  0  0 507 508   0  1
286  0  0 509 510   0  1
287  0  0 511 512   0  1
288  1  0   0   0   0  0

# Format of RF events:
# id amplitude mag_id phase_id delay freq phase
# ..        Hz   ....     ....    us   Hz   rad
[RF]
1           50 1 2 0 0 0

# Format of trapezoid gradients:
# id amplitude rise flat fall delay
# ..      Hz/m   us   us   us    us
[TRAP]
 1     -3583.87   0 1000   0   0
 2     -1767.14   0 1000   0   0
 3     -12801.4   0 1000   0   0
 4      6581.89   0 1000   0   0
 5        16509   0 1000   0   0
 6      5880.61   0 1000   0   0
 7     -15553.2   0 1000   0   0
 8     -11890.9   0 1000   0   0
 9      12796.2   0 1000   0   0
10      17501.2   0 1000   0   0
11      5179.54   0 1000   0   0
12     -20.0631   0 1000   0   0
13     -318.104   0 1000   0   0
14     -11883.6   0 1000   0   0
15      9497.97   0 1000   0   0
16     -2337.74   0 1000   0   0
17     -15025.8   0 1000   0   0
18      2511.06   0 1000   0   0
19      4531.69   0 1000   0   0
20     -6883.57   0 1000   0   0
21      10608.3   0 1000   0   0
22      -1723.4   0 1000   0   0
23     -16505.6   0 1000   0   0
24     -4291.05   0 1000   0   0
25      21804.2   0 1000   0   0
26       7062.2   0 1000   0   0
27       -15945   0 1000   0   0
28     -7005.11   0 1000   0   0
29      5809.21   0 1000   0   0
30      1196.49   0 1000   0   0
31     -1035.82   0 1000   0   0
32      6128.46   0 1000   0   0
33     -3128.13   0 1000   0   0
34     -13787.9   0 1000   0   0
35        12103   0 1000   0   0
36      1708.23   0 1000   0   0
37     -11055.7   0 1000   0   0
38     -7194.87   0 1000   0   0
39     -10976.1   0 1000   0   0
40     -3938.11   0 1000   0   0
41      14275.3   0 1000   0   0
42     -1123.46   0 1000   0   0
43     -2916.22   0 1000   0   0
44     -7494.23   0 1000   0   0
45     -5490.05   0 1000   0   0
46     -386.088   0 1000   0   0
47      11753.5   0 1000   0   0
48      472.162   0 1000   0   0
49      7017.09   0 1000   0   0
50       661.69   0 1000   0   0
51      5135.82   0 1000   0   0
52      4105.41   0 1000   0   0
53     -9325.38   0 1000   0   0
54      2945.57   0 1000   0   0
55     -13437.3   0 1000   0   0
56      916.885   0 1000   0   0
57      8356.77   0 1000   0   0
58      9481.75   0 1000   0   0
59       1083.4   0 1000   0   0
60     -5581.68   0 1000   0   0
61     -13360.5   0 1000   0   0
62      18187.3   0 1000   0   0
63      -823.21   0 1000   0   0
64      6267.54   0 1000   0   0
65      13627.7   0 1000   0   0
66      8387.14   0 1000   0   0
67      2945.21   0 1000   0   0
68     -4958.52   0 1000   0   0
69     -10041.4   0 1000   0   0
70       5334.3   0 1000   0   0
71     -12818.4   0 1000   0   0
72     -3894.57   0 1000   0   0
73     -14594.6   0 1000   0   0
74     -14321.9   0 1000   0   0
75     -11233.2   0 1000   0   0
76      7292.63   0 1000   0   0
77      10209.7   0 1000   0   0
78       7333.2   0 1000   0   0
79      1475.96   0 1000   0   0
80     -5540.68   0 1000   0   0
81      14038.5   0 1000   0   0
82      11288.8   0 1000   0   0
83      13423.1   0 1000   0   0
84      -7094.8   0 1000   0   0
85      10447.7   0 1000   0   0
86     -9286.11   0 1000   0   0
87     -16959.5   0 1000   0   0
88      9626.56   0 1000   0   0
89      6330.63   0 1000   0   0
90      9245.01   0 1000   0   0
91      16502.6   0 1000   0   0
92     -15358.6   0 1000   0   0
93      10507.1   0 1000   0   0
94      2473.34   0 1000   0   0
95     -975.298   0 1000   0   0
96      5534.96   0 1000   0   0
97       -10884   0 1000   0   0
98     -7268.86   0 1000   0   0
99      6144.34   0 1000   0   0
100      4826.58   0 1000   0   0
101      16207.1   0 1000   0   0
102       5907.6   0 1000   0   0
103     -14887.8   0 1000   0   0
104      16125.2   0 1000   0   0
105     -3016.11   0 1000   0   0
106      4318.37   0 1000   0   0
107       8505.6   0 1000   0   0
108     -2792.62   0 1000   0   0
109     -14734.8   0 1000   0   0
110     -10521.9   0 1000   0   0
111      13190.3   0 1000   0   0
112      581.266   0 1000   0   0
113     -1525.81   0 1000   0   0
114        13172   0 1000   0   0
115      8743.85   0 1000   0   0
116     -115.593   0 1000   0   0
117      6206.15   0 1000   0   0
118      604.488   0 1000   0   0
119     -6537.06   0 1000   0   0
120     -4762.77   0 1000   0   0
121      9925.87   0 1000   0   0
122      13041.3   0 1000   0   0
123      11839.6   0 1000   0   0
124      1529.29   0 1000   0   0
125      -6275.5   0 1000   0   0
126     -1634.43   0 1000   0   0
127     -17390.7   0 1000   0   0
128     -412.418   0 1000   0   0
129      -8606.2   0 1000   0   0
130        15412   0 1000   0   0
131     -6152.07   0 1000   0   0
132     -14371.5   0 1000   0   0
133     -10542.9   0 1000   0   0
134      7676.42   0 1000   0   0
135      -507.16   0 1000   0   0
136     -6862.16   0 1000   0   0
137      9690.64   0 1000   0   0
138     -7329.19   0 1000   0   0
139     -7492.23   0 1000   0   0
140     -18495.3   0 1000   0   0
141      5420.78   0 1000   0   0
142      5041.43   0 1000   0   0
143      13847.6   0 1000   0   0
144      11161.3   0 1000   0   0
145      17621.8   0 1000   0   0
146     -581.993   0 1000   0   0
147      6624.81   0 1000   0   0
148      17083.9   0 1000   0   0
149      45.3173   0 1000   0   0
150       4798.4   0 1000   0   0
151       7573.7   0 1000   0   0
152     -11106.3   0 1000   0   0
153     -5035.25   0 1000   0   0
154      556.535   0 1000   0   0
155      2059.17   0 1000   0   0
156     -9967.83   0 1000   0   0
157      4127.01   0 1000   0   0
158      3837.25   0 1000   0   0
159      6369.59   0 1000   0   0
160     -3931.96   0 1000   0   0
161     -7247.64   0 1000   0   0
162      10431.1   0 1000   0   0
163      9403.93   0 1000   0   0
164     -11491.2   0 1000   0   0
165     -11750.6   0 1000   0   0
166     -12346.1   0 1000   0   0
167      17312.9   0 1000   0   0
168      22050.4   0 1000   0   0
169     -4581.33   0 1000   0   0
170       -15515   0 1000   0   0
171     -4024.15   0 1000   0   0
172      22532.6   0 1000   0   0
173      566.914   0 1000   0   0
174      -8988.2   0 1000   0   0
175      23207.4   0 1000   0   0
176      15545.1   0 1000   0   0
177     -27695.5   0 1000   0   0
178      7326.19   0 1000   0   0
179      21381.9   0 1000   0   0
180     -637.152   0 1000   0   0
181     -15081.6   0 1000   0   0
182     -1137.69   0 1000   0   0
183      26760.5   0 1000   0   0
184      1051.92   0 1000   0   0
185     -18284.1   0 1000   0   0
186     -417.889   0 1000   0   0
187     -1447.14   0 1000   0   0
188      5354.51   0 1000   0   0
189     -9280.88   0 1000   0   0
190     -924.375   0 1000   0   0
191     -7825.27   0 1000   0   0
192      734.833   0 1000   0   0
193      18653.5   0 1000   0   0
194     -9651.73   0 1000   0   0
195        16646   0 1000   0   0
196     -16757.8   0 1000   0   0
197     -1309.35   0 1000   0   0
198     -5691.53   0 1000   0   0
199     -11919.5   0 1000   0   0
200      2475.58   0 1000   0   0
201      7429.83   0 1000   0   0
202     -3281.51   0 1000   0   0
203      4005.22   0 1000   0   0
204        11354   0 1000   0   0
205     -3903.79   0 1000   0   0
206      12891.9   0 1000   0   0
207      -7274.1   0 1000   0   0
208     -5015.19   0 1000   0   0
209     -18345.3   0 1000   0   0
210      1218.01   0 1000   0   0
211     -13790.4   0 1000   0   0
212     -6189.82   0 1000   0   0
213     -4476.63   0 1000   0   0
214      5765.09   0 1000   0   0
215     -10471.2   0 1000   0   0
216      9964.07   0 1000   0   0
217      -7245.8   0 1000   0   0
218      8811.65   0 1000   0   0
219     -1517.99   0 1000   0   0
220      6182.65   0 1000   0   0
221      2045.25   0 1000   0   0
222     -20532.4   0 1000   0   0
223     -4778.99   0 1000   0   0
224     -4706.37   0 1000   0   0
225     -11749.1   0 1000   0   0
226     -3793.46   0 1000   0   0
227      6877.24   0 1000   0   0
228     -10914.8   0 1000   0   0
229      12709.2   0 1000   0   0
230      12684.6   0 1000   0   0
231       4485.2   0 1000   0   0
232     -905.529   0 1000   0   0
233     -2412.14   0 1000   0   0
234      16999.3   0 1000   0   0
235     -11759.3   0 1000   0   0
236     -23563.4   0 1000   0   0
237      7322.23   0 1000   0   0
238       -10060   0 1000   0   0
239     -8143.77   0 1000   0   0
240      -1387.1   0 1000   0   0
241      5209.79   0 1000   0   0
242     -7460.66   0 1000   0   0
243     -2814.89   0 1000   0   0
244      12445.4   0 1000   0   0
245      3535.46   0 1000   0   0
246     -8047.62   0 1000   0   0
247     -12174.1   0 1000   0   0
248     -3236.02   0 1000   0   0
249      21136.7   0 1000   0   0
250      -6389.5   0 1000   0   0
251      4642.63   0 1000   0   0
252      1076.48   0 1000   0   0
253     -19463.8   0 1000   0   0
254      1198.39   0 1000   0   0
255     -742.356   0 1000   0   0
256       4216.1   0 1000   0   0
257       -15935   0 1000   0   0
258      8794.35   0 1000   0   0
259      -5955.1   0 1000   0   0
260      12384.7   0 1000   0   0
261      1263.96   0 1000   0   0
262     -14554.3   0 1000   0   0
263      12325.4   0 1000   0   0
264     -3619.95   0 1000   0   0
265      15991.4   0 1000   0   0
266       -10920   0 1000   0   0
267      4237.76   0 1000   0   0
268     -4177.73   0 1000   0   0
269     -1306.99   0 1000   0   0
270     -11089.4   0 1000   0   0
271      7056.57   0 1000   0   0
272      4200.62   0 1000   0   0
273      7682.49   0 1000   0   0
274      25053.9   0 1000   0   0
275     -12172.6   0 1000   0   0
276      14374.1   0 1000   0   0
277      10602.6   0 1000   0   0
278     -4185.25   0 1000   0   0
279      205.042   0 1000   0   0
280     -5225.32   0 1000   0   0
281      10953.8   0 1000   0   0
282      12772.8   0 1000   0   0
283     -2428.51   0 1000   0   0
284     -12349.1   0 1000   0   0
285      311.488   0 1000   0   0
286     -9742.08   0 1000   0   0
287     -1981.95   0 1000   0   0
288        21388   0 1000   0   0
289     -7109.74   0 1000   0   0
290      18842.4   0 1000   0   0
291     -7770.85   0 1000   0   0
292     -15694.2   0 1000   0   0
293      11966.5   0 1000   0   0
294     -2248.74   0 1000   0   0
295     -10917.1   0 1000   0   0
296      19435.9   0 1000   0   0
297     -17664.1   0 1000   0   0
298      10965.6   0 1000   0   0
299      3385.72   0 1000   0   0
300     -6137.46   0 1000   0   0
301      13627.3   0 1000   0   0
302      1247.44   0 1000   0   0
303      5715.64   0 1000   0   0
304     -3097.63   0 1000   0   0
305      8391.18   0 1000   0   0
306     -3208.77   0 1000   0   0
307       5853.1   0 1000   0   0
308      1962.09   0 1000   0   0
309     -1114.84   0 1000   0   0
310     -6144.85   0 1000   0   0
311      675.677   0 1000   0   0
312      11731.1   0 1000   0   0
313     -22510.7   0 1000   0   0
314        -4217   0 1000   0   0
315     -1454.12   0 1000   0   0
316      7885.78   0 1000   0   0
317      13447.1   0 1000   0   0
318      3983.28   0 1000   0   0
319      -9546.3   0 1000   0   0
320     -280.691   0 1000   0   0
321      13617.6   0 1000   0   0
322      9163.72   0 1000   0   0
323     -7995.62   0 1000   0   0
324     -5526.14   0 1000   0   0
325     -6656.18   0 1000   0   0
326      2158.62   0 1000   0   0
327     -4911.99   0 1000   0   0
328      1705.09   0 1000   0   0
329     -3473.75   0 1000   0   0
330     -16468.5   0 1000   0   0
331     -3280.62   0 1000   0   0
332     -15947.9   0 1000   0   0
333        27147   0 1000   0   0
334     -2025.73   0 1000   0   0
335     -8305.02   0 1000   0   0
336     -4488.55   0 1000   0   0
337       282.17   0 1000   0   0
338      16999.7   0 1000   0   0
339      19787.7   0 1000   0   0
340      2798.09   0 1000   0   0
341     -6815.15   0 1000   0   0
342       6902.6   0 1000   0   0
343     -7835.99   0 1000   0   0
344     -1633.85   0 1000   0   0
345      6422.29   0 1000   0   0
346      7558.02   0 1000   0   0
347      6942.84   0 1000   0   0
348     -5426.04   0 1000   0   0
349      5164.75   0 1000   0   0
350      23762.4   0 1000   0   0
351      -285.99   0 1000   0   0
352     -5835.15   0 1000   0   0
353      11644.6   0 1000   0   0
354      3049.86   0 1000   0   0
355     -11380.3   0 1000   0   0
356     -6588.47   0 1000   0   0
357     -4633.14   0 1000   0   0
358     -7685.32   0 1000   0   0
359     -7894.61   0 1000   0   0
360     -8003.07   0 1000   0   0
361     -6095.96   0 1000   0   0
362     -4434.32   0 1000   0   0
363     -2676.73   0 1000   0   0
364     -11307.4   0 1000   0   0
365     -6792.45   0 1000   0   0
366      10034.8   0 1000   0   0
367       9444.7   0 1000   0   0
368     -5881.49   0 1000   0   0
369     -11323.2   0 1000   0   0
370      10816.7   0 1000   0   0
371      -445.55   0 1000   0   0
372     -11294.5   0 1000   0   0
373      4187.87   0 1000   0   0
374      11443.5   0 1000   0   0
375      8309.88   0 1000   0   0
376      11831.4   0 1000   0   0
377     -11714.8   0 1000   0   0
378     -2922.18   0 1000   0   0
379      262.233   0 1000   0   0
380      11867.6   0 1000   0   0
381      2153.11   0 1000   0   0
382     -14655.3   0 1000   0   0
383      10183.9   0 1000   0   0
384     -2437.08   0 1000   0   0
385     -6965.77   0 1000   0   0
386     -16943.1   0 1000   0   0
387      8950.95   0 1000   0   0
388      17004.1   0 1000   0   0
389      5343.47   0 1000   0   0
390     -2747.94   0 1000   0   0
391     -14604.1   0 1000   0   0
392      234.237   0 1000   0   0
393     -12434.1   0 1000   0   0
394      1462.23   0 1000   0   0
395        16794   0 1000   0   0
396      14112.9   0 1000   0   0
397      -7896.9   0 1000   0   0
398      -6594.9   0 1000   0   0
399     -460.693   0 1000   0   0
400      15794.2   0 1000   0   0
401      24997.1   0 1000   0   0
402      7686.35   0 1000   0   0
403     -10592.5   0 1000   0   0
404      2715.11   0 1000   0   0
405     -6164.78   0 1000   0   0
406     -2781.11   0 1000   0   0
407      13569.2   0 1000   0   0
408      3882.16   0 1000   0   0
409      8098.54   0 1000   0   0
410      1665.45   0 1000   0   0
411      12221.1   0 1000   0   0
412      455.191   0 1000   0   0
413      5508.55   0 1000   0   0
414     -381.664   0 1000   0   0
415     -6429.55   0 1000   0   0
416      654.119   0 1000   0   0
417     -4774.07   0 1000   0   0
418      3137.74   0 1000   0   0
419     -13135.9   0 1000   0   0
420      2248.58   0 1000   0   0
421      11440.5   0 1000   0   0
422       7782.5   0 1000   0   0
423     -8023.93   0 1000   0   0
424      3745.92   0 1000   0   0
425     -9599.51   0 1000   0   0
426     -3910.73   0 1000   0   0
427     -6961.18   0 1000   0   0
428     -18165.9   0 1000   0   0
429     -4839.94   0 1000   0   0
430      11640.2   0 1000   0   0
431      3169.36   0 1000   0   0
432     -4841.54   0 1000   0   0
433      3485.66   0 1000   0   0
434      7399.25   0 1000   0   0
435      3073.83   0 1000   0   0
436     -4071.66   0 1000   0   0
437     -2303.66   0 1000   0   0
438      13630.4   0 1000   0   0
439      7340.16   0 1000   0   0
440     -25171.3   0 1000   0   0
441      10606.6   0 1000   0   0
442      7412.79   0 1000   0   0
443       -12316   0 1000   0   0
444     -11847.5   0 1000   0   0
445     -12866.3   0 1000   0   0
446     -6086.73   0 1000   0   0
447     -590.361   0 1000   0   0
448      13098.4   0 1000   0   0
449     -12117.9   0 1000   0   0
450      11255.4   0 1000   0   0
451      25108.7   0 1000   0   0
452      3273.24   0 1000   0   0
453       -16666   0 1000   0   0
454      10176.4   0 1000   0   0
455      15464.2   0 1000   0   0
456      465.159   0 1000   0   0
457      6472.88   0 1000   0   0
458     -9373.13   0 1000   0   0
459      5237.45   0 1000   0   0
460     -13601.9   0 1000   0   0
461      7252.04   0 1000   0   0
462     -6705.99   0 1000   0   0
463     -3133.01   0 1000   0   0
464      3612.96   0 1000   0   0
465     -555.642   0 1000   0   0
466      16472.7   0 1000   0   0
467       6148.1   0 1000   0   0
468     -6360.83   0 1000   0   0
469     -3735.41   0 1000   0   0
470      16130.4   0 1000   0   0
471      1205.72   0 1000   0   0
472     -7777.16   0 1000   0   0
473      2083.07   0 1000   0   0
474      11210.3   0 1000   0   0
475      1639.69   0 1000   0   0
476     -3905.58   0 1000   0   0
477      471.727   0 1000   0   0
478     -4801.01   0 1000   0   0
479      1402.56   0 1000   0   0
480     -4608.71   0 1000   0   0
481      3093.38   0 1000   0   0
482     -8681.74   0 1000   0   0
483     -3009.34   0 1000   0   0
484     -14702.7   0 1000   0   0
485      23671.5   0 1000   0   0
486     -1564.19   0 1000   0   0
487      8052.93   0 1000   0   0
488      11566.2   0 1000   0   0
489     -11539.9   0 1000   0   0
490      8604.59   0 1000   0   0
491     -20435.2   0 1000   0   0
492       -11528   0 1000   0   0
493     -6272.35   0 1000   0   0
494       -15030   0 1000   0   0
495     -34.0503   0 1000   0   0
496      8933.28   0 1000   0   0
497     -4543.52   0 1000   0   0
498     -5346.98   0 1000   0   0
499      16669.2   0 1000   0   0
500      3665.77   0 1000   0   0
501     -16421.3   0 1000   0   0
502     -8401.67   0 1000   0   0
503      6946.93   0 1000   0   0
504      5399.08   0 1000   0   0
505      5191.55   0 1000   0   0
506     -2211.23   0 1000   0   0
507      6792.22   0 1000   0   0
508      9877.47   0 1000   0   0
509         6151   0 1000   0   0
510      6240.39   0 1000   0   0
511        15352   0 1000   0   0
512      16191.7   0 1000   0   0

# Format of ADC events:
# id num dwell delay freq phase
# ..  ..    ns    us   Hz   rad
[ADC]
1 1 1000000 0 0 0

# Format of delays:
# id delay (us)
[DELAYS]
1 10000000

# Sequence Shapes
[SHAPES]

shape_id 1
num_samples 1000
1
0
0
997

shape_id 2
num_samples 1000
0
0
998

