# Pulseq sequence file
# Created by MATLAB mr toolbox

[VERSION]
major 1
minor 2
revision 0

# Format of blocks:
#  #  D RF  GX  GY  GZ ADC
[BLOCKS]
  1  0  1   0   0   0  0
  2  0  0   1   2   0  1
  3  0  0   3   4   0  1
  4  0  0   5   6   0  1
  5  0  0   7   8   0  1
  6  0  0   9  10   0  1
  7  0  0  11  12   0  1
  8  0  0  13  14   0  1
  9  0  0  15  16   0  1
 10  0  0  17  18   0  1
 11  0  0  19  20   0  1
 12  0  0  21  22   0  1
 13  0  0  23  24   0  1
 14  0  0  25  26   0  1
 15  0  0  27  28   0  1
 16  0  0  29  30   0  1
 17  0  0  31  32   0  1
 18  1  0   0   0   0  0
 19  0  1   0   0   0  0
 20  0  0  33  34   0  1
 21  0  0  35  36   0  1
 22  0  0  37  38   0  1
 23  0  0  39  40   0  1
 24  0  0  41  42   0  1
 25  0  0  43  44   0  1
 26  0  0  45  46   0  1
 27  0  0  47  48   0  1
 28  0  0  49  50   0  1
 29  0  0  51  52   0  1
 30  0  0  53  54   0  1
 31  0  0  55  56   0  1
 32  0  0  57  58   0  1
 33  0  0  59  60   0  1
 34  0  0  61  62   0  1
 35  0  0  63  64   0  1
 36  1  0   0   0   0  0
 37  0  1   0   0   0  0
 38  0  0  65  66   0  1
 39  0  0  67  68   0  1
 40  0  0  69  70   0  1
 41  0  0  71  72   0  1
 42  0  0  73  74   0  1
 43  0  0  75  76   0  1
 44  0  0  77  78   0  1
 45  0  0  79  80   0  1
 46  0  0  81  82   0  1
 47  0  0  83  84   0  1
 48  0  0  85  86   0  1
 49  0  0  87  88   0  1
 50  0  0  89  90   0  1
 51  0  0  91  92   0  1
 52  0  0  93  94   0  1
 53  0  0  95  96   0  1
 54  1  0   0   0   0  0
 55  0  1   0   0   0  0
 56  0  0  97  98   0  1
 57  0  0  99 100   0  1
 58  0  0 101 102   0  1
 59  0  0 103 104   0  1
 60  0  0 105 106   0  1
 61  0  0 107 108   0  1
 62  0  0 109 110   0  1
 63  0  0 111 112   0  1
 64  0  0 113 114   0  1
 65  0  0 115 116   0  1
 66  0  0 117 118   0  1
 67  0  0 119 120   0  1
 68  0  0 121 122   0  1
 69  0  0 123 124   0  1
 70  0  0 125 126   0  1
 71  0  0 127 128   0  1
 72  1  0   0   0   0  0
 73  0  1   0   0   0  0
 74  0  0 129 130   0  1
 75  0  0 131 132   0  1
 76  0  0 133 134   0  1
 77  0  0 135 136   0  1
 78  0  0 137 138   0  1
 79  0  0 139 140   0  1
 80  0  0 141 142   0  1
 81  0  0 143 144   0  1
 82  0  0 145 146   0  1
 83  0  0 147 148   0  1
 84  0  0 149 150   0  1
 85  0  0 151 152   0  1
 86  0  0 153 154   0  1
 87  0  0 155 156   0  1
 88  0  0 157 158   0  1
 89  0  0 159 160   0  1
 90  1  0   0   0   0  0
 91  0  1   0   0   0  0
 92  0  0 161 162   0  1
 93  0  0 163 164   0  1
 94  0  0 165 166   0  1
 95  0  0 167 168   0  1
 96  0  0 169 170   0  1
 97  0  0 171 172   0  1
 98  0  0 173 174   0  1
 99  0  0 175 176   0  1
100  0  0 177 178   0  1
101  0  0 179 180   0  1
102  0  0 181 182   0  1
103  0  0 183 184   0  1
104  0  0 185 186   0  1
105  0  0 187 188   0  1
106  0  0 189 190   0  1
107  0  0 191 192   0  1
108  1  0   0   0   0  0
109  0  1   0   0   0  0
110  0  0 193 194   0  1
111  0  0 195 196   0  1
112  0  0 197 198   0  1
113  0  0 199 200   0  1
114  0  0 201 202   0  1
115  0  0 203 204   0  1
116  0  0 205 206   0  1
117  0  0 207 208   0  1
118  0  0 209 210   0  1
119  0  0 211 212   0  1
120  0  0 213 214   0  1
121  0  0 215 216   0  1
122  0  0 217 218   0  1
123  0  0 219 220   0  1
124  0  0 221 222   0  1
125  0  0 223 224   0  1
126  1  0   0   0   0  0
127  0  1   0   0   0  0
128  0  0 225 226   0  1
129  0  0 227 228   0  1
130  0  0 229 230   0  1
131  0  0 231 232   0  1
132  0  0 233 234   0  1
133  0  0 235 236   0  1
134  0  0 237 238   0  1
135  0  0 239 240   0  1
136  0  0 241 242   0  1
137  0  0 243 244   0  1
138  0  0 245 246   0  1
139  0  0 247 248   0  1
140  0  0 249 250   0  1
141  0  0 251 252   0  1
142  0  0 253 254   0  1
143  0  0 255 256   0  1
144  1  0   0   0   0  0
145  0  1   0   0   0  0
146  0  0 257 258   0  1
147  0  0 259 260   0  1
148  0  0 261 262   0  1
149  0  0 263 264   0  1
150  0  0 265 266   0  1
151  0  0 267 268   0  1
152  0  0 269 270   0  1
153  0  0 271 272   0  1
154  0  0 273 274   0  1
155  0  0 275 276   0  1
156  0  0 277 278   0  1
157  0  0 279 280   0  1
158  0  0 281 282   0  1
159  0  0 283 284   0  1
160  0  0 285 286   0  1
161  0  0 287 288   0  1
162  1  0   0   0   0  0
163  0  1   0   0   0  0
164  0  0 289 290   0  1
165  0  0 291 292   0  1
166  0  0 293 294   0  1
167  0  0 295 296   0  1
168  0  0 297 298   0  1
169  0  0 299 300   0  1
170  0  0 301 302   0  1
171  0  0 303 304   0  1
172  0  0 305 306   0  1
173  0  0 307 308   0  1
174  0  0 309 310   0  1
175  0  0 311 312   0  1
176  0  0 313 314   0  1
177  0  0 315 316   0  1
178  0  0 317 318   0  1
179  0  0 319 320   0  1
180  1  0   0   0   0  0
181  0  1   0   0   0  0
182  0  0 321 322   0  1
183  0  0 323 324   0  1
184  0  0 325 326   0  1
185  0  0 327 328   0  1
186  0  0 329 330   0  1
187  0  0 331 332   0  1
188  0  0 333 334   0  1
189  0  0 335 336   0  1
190  0  0 337 338   0  1
191  0  0 339 340   0  1
192  0  0 341 342   0  1
193  0  0 343 344   0  1
194  0  0 345 346   0  1
195  0  0 347 348   0  1
196  0  0 349 350   0  1
197  0  0 351 352   0  1
198  1  0   0   0   0  0
199  0  1   0   0   0  0
200  0  0 353 354   0  1
201  0  0 355 356   0  1
202  0  0 357 358   0  1
203  0  0 359 360   0  1
204  0  0 361 362   0  1
205  0  0 363 364   0  1
206  0  0 365 366   0  1
207  0  0 367 368   0  1
208  0  0 369 370   0  1
209  0  0 371 372   0  1
210  0  0 371 373   0  1
211  0  0 371 374   0  1
212  0  0 371 375   0  1
213  0  0 371 376   0  1
214  0  0 371 377   0  1
215  0  0 371 378   0  1
216  1  0   0   0   0  0
217  0  1   0   0   0  0
218  0  0 379 380   0  1
219  0  0 381 382   0  1
220  0  0 383 384   0  1
221  0  0 385 386   0  1
222  0  0 387 388   0  1
223  0  0 389 390   0  1
224  0  0 391 392   0  1
225  0  0 393 394   0  1
226  0  0 395 396   0  1
227  0  0 397 398   0  1
228  0  0 399 400   0  1
229  0  0 401 402   0  1
230  0  0 403 404   0  1
231  0  0 405 406   0  1
232  0  0 407 408   0  1
233  0  0 409 410   0  1
234  1  0   0   0   0  0
235  0  1   0   0   0  0
236  0  0 411 412   0  1
237  0  0 413 414   0  1
238  0  0 415 416   0  1
239  0  0 417 418   0  1
240  0  0 419 420   0  1
241  0  0 421 422   0  1
242  0  0 423 424   0  1
243  0  0 425 426   0  1
244  0  0 427 428   0  1
245  0  0 429 430   0  1
246  0  0 431 432   0  1
247  0  0 433 434   0  1
248  0  0 435 436   0  1
249  0  0 437 438   0  1
250  0  0 439 440   0  1
251  0  0 441 442   0  1
252  1  0   0   0   0  0
253  0  1   0   0   0  0
254  0  0 443 444   0  1
255  0  0 445 446   0  1
256  0  0 447 448   0  1
257  0  0 449 450   0  1
258  0  0 451 452   0  1
259  0  0 453 454   0  1
260  0  0 455 456   0  1
261  0  0 457 458   0  1
262  0  0 459 460   0  1
263  0  0 461 462   0  1
264  0  0 463 464   0  1
265  0  0 465 466   0  1
266  0  0 467 468   0  1
267  0  0 469 470   0  1
268  0  0 471 472   0  1
269  0  0 473 474   0  1
270  1  0   0   0   0  0
271  0  1   0   0   0  0
272  0  0 475 476   0  1
273  0  0 477 478   0  1
274  0  0 479 480   0  1
275  0  0 481 482   0  1
276  0  0 483 484   0  1
277  0  0 485 486   0  1
278  0  0 487 488   0  1
279  0  0 489 490   0  1
280  0  0 491 492   0  1
281  0  0 493 494   0  1
282  0  0 495 496   0  1
283  0  0 497 498   0  1
284  0  0 499 500   0  1
285  0  0 501 502   0  1
286  0  0 503 504   0  1
287  0  0 505 506   0  1
288  1  0   0   0   0  0

# Format of RF events:
# id amplitude mag_id phase_id delay freq phase
# ..        Hz   ....     ....    us   Hz   rad
[RF]
1          250 1 2 0 0 0

# Format of trapezoid gradients:
# id amplitude rise flat fall delay
# ..      Hz/m   us   us   us    us
[TRAP]
 1     -1.58572  50  900  50   0
 2     -2.20236  50  900  50   0
 3     0.118377  50  900  50   0
 4     -5.94979  50  900  50   0
 5       2.0014  50  900  50   0
 6      -1.9681  50  900  50   0
 7     -1.76155  50  900  50   0
 8      1.49821  50  900  50   0
 9     -0.25182  50  900  50   0
10      5.29522  50  900  50   0
11     -1.79862  50  900  50   0
12       9.5238  50  900  50   0
13    -0.454876  50  900  50   0
14      20.5791  50  900  50   0
15      3.69061  50  900  50   0
16      21.3038  50  900  50   0
17      1.68595  50  900  50   0
18      9.50087  50  900  50   0
19      1.84901  50  900  50   0
20      1.60585  50  900  50   0
21     0.118967  50  900  50   0
22      12.6142  50  900  50   0
23      9.55653  50  900  50   0
24     -1.91154  50  900  50   0
25      14.5067  50  900  50   0
26     -5.98052  50  900  50   0
27       13.026  50  900  50   0
28     -1.74235  50  900  50   0
29      9.39562  50  900  50   0
30       1.9737  50  900  50   0
31      16.4442  50  900  50   0
32      11.5006  50  900  50   0
33      3.44043  50  900  50   0
34      5.27222  50  900  50   0
35      3.68705  50  900  50   0
36       12.894  50  900  50   0
37      5.75849  50  900  50   0
38      1.26097  50  900  50   0
39     -4.16596  50  900  50   0
40     -4.88107  50  900  50   0
41      3.29584  50  900  50   0
42     -14.6717  50  900  50   0
43    -0.385844  50  900  50   0
44     -14.8644  50  900  50   0
45     -9.45916  50  900  50   0
46     -1.04792  50  900  50   0
47     -11.3322  50  900  50   0
48       2.8691  50  900  50   0
49     -7.88819  50  900  50   0
50      3.19343  50  900  50   0
51      5.94823  50  900  50   0
52     -2.43648  50  900  50   0
53      16.9777  50  900  50   0
54      0.95415  50  900  50   0
55      12.8699  50  900  50   0
56      7.46224  50  900  50   0
57      1.17195  50  900  50   0
58      2.25204  50  900  50   0
59     -4.18012  50  900  50   0
60      4.76542  50  900  50   0
61     -4.88111  50  900  50   0
62     0.540056  50  900  50   0
63       4.2238  50  900  50   0
64     -5.98266  50  900  50   0
65    -0.854619  50  900  50   0
66      7.94295  50  900  50   0
67     -7.81619  50  900  50   0
68      6.89896  50  900  50   0
69       7.5733  50  900  50   0
70      4.74371  50  900  50   0
71     -3.08942  50  900  50   0
72      12.5828  50  900  50   0
73      -2.8264  50  900  50   0
74      15.8047  50  900  50   0
75      1.16837  50  900  50   0
76      15.7947  50  900  50   0
77      2.00583  50  900  50   0
78      8.93597  50  900  50   0
79       14.527  50  900  50   0
80      14.4572  50  900  50   0
81      6.76263  50  900  50   0
82      15.5184  50  900  50   0
83      5.72114  50  900  50   0
84      8.87132  50  900  50   0
85      12.4265  50  900  50   0
86      2.09989  50  900  50   0
87      16.7056  50  900  50   0
88     -2.70232  50  900  50   0
89      8.34767  50  900  50   0
90     -5.75374  50  900  50   0
91      2.50796  50  900  50   0
92     -2.33661  50  900  50   0
93    -0.820844  50  900  50   0
94      4.59097  50  900  50   0
95     -4.73279  50  900  50   0
96      8.22089  50  900  50   0
97     -11.2405  50  900  50   0
98      5.18655  50  900  50   0
99     -5.60506  50  900  50   0
100     -8.41913  50  900  50   0
101     -6.85074  50  900  50   0
102     -1.28024  50  900  50   0
103     -14.7702  50  900  50   0
104      3.13234  50  900  50   0
105     -15.7222  50  900  50   0
106    -0.512086  50  900  50   0
107     -14.8129  50  900  50   0
108     -5.08034  50  900  50   0
109      -20.667  50  900  50   0
110      4.35322  50  900  50   0
111     -17.6084  50  900  50   0
112      3.67773  50  900  50   0
113     -16.0659  50  900  50   0
114      7.59717  50  900  50   0
115     -6.73585  50  900  50   0
116      2.88966  50  900  50   0
117     -8.02762  50  900  50   0
118     -4.84577  50  900  50   0
119     -12.9174  50  900  50   0
120    -0.284349  50  900  50   0
121     -1.60012  50  900  50   0
122     -11.0704  50  900  50   0
123     -1.70696  50  900  50   0
124     -8.10093  50  900  50   0
125      1.85457  50  900  50   0
126     -11.8613  50  900  50   0
127      1.95952  50  900  50   0
128      -9.0081  50  900  50   0
129     -2.66797  50  900  50   0
130     -2.61456  50  900  50   0
131     -1.54167  50  900  50   0
132     0.556675  50  900  50   0
133       6.1163  50  900  50   0
134     -9.37944  50  900  50   0
135     0.211715  50  900  50   0
136     -4.93617  50  900  50   0
137      3.66277  50  900  50   0
138      1.29602  50  900  50   0
139      9.55905  50  900  50   0
140      -2.0035  50  900  50   0
141      13.5112  50  900  50   0
142     -9.92772  50  900  50   0
143      11.4034  50  900  50   0
144     -5.65802  50  900  50   0
145      17.5221  50  900  50   0
146     -6.80868  50  900  50   0
147      19.0041  50  900  50   0
148     -2.93398  50  900  50   0
149      20.8232  50  900  50   0
150       4.3524  50  900  50   0
151      15.6355  50  900  50   0
152       8.1024  50  900  50   0
153      9.38119  50  900  50   0
154      1.24279  50  900  50   0
155       15.673  50  900  50   0
156      4.79524  50  900  50   0
157      20.3518  50  900  50   0
158     0.841144  50  900  50   0
159      19.3324  50  900  50   0
160         12.4  50  900  50   0
161     -5.86824  50  900  50   0
162     -12.3054  50  900  50   0
163     -10.5905  50  900  50   0
164     -11.7321  50  900  50   0
165     -8.69986  50  900  50   0
166     -14.9507  50  900  50   0
167     -4.55201  50  900  50   0
168     -15.1869  50  900  50   0
169      1.02989  50  900  50   0
170      -17.626  50  900  50   0
171     -5.67237  50  900  50   0
172     -20.5378  50  900  50   0
173     -2.58485  50  900  50   0
174      -20.813  50  900  50   0
175      5.23846  50  900  50   0
176     -16.2125  50  900  50   0
177     -2.95909  50  900  50   0
178      -17.975  50  900  50   0
179      3.50353  50  900  50   0
180     -20.5512  50  900  50   0
181        7.367  50  900  50   0
182     -14.0153  50  900  50   0
183      9.65046  50  900  50   0
184     -17.7109  50  900  50   0
185     0.373174  50  900  50   0
186      -20.295  50  900  50   0
187      7.23731  50  900  50   0
188     -20.1872  50  900  50   0
189      13.2975  50  900  50   0
190     -19.8515  50  900  50   0
191      13.8502  50  900  50   0
192     -17.0062  50  900  50   0
193     -13.2807  50  900  50   0
194      13.4487  50  900  50   0
195     -19.5821  50  900  50   0
196      14.5081  50  900  50   0
197     -17.4171  50  900  50   0
198      11.3683  50  900  50   0
199     -21.5256  50  900  50   0
200      7.99057  50  900  50   0
201     -19.6285  50  900  50   0
202    -0.170855  50  900  50   0
203     -19.9096  50  900  50   0
204     -4.13952  50  900  50   0
205     -18.9622  50  900  50   0
206     -12.9446  50  900  50   0
207      -8.9803  50  900  50   0
208     -8.39578  50  900  50   0
209       -4.725  50  900  50   0
210      1.23531  50  900  50   0
211     -1.33143  50  900  50   0
212     -13.0285  50  900  50   0
213      6.49188  50  900  50   0
214     -1.71209  50  900  50   0
215       10.728  50  900  50   0
216     -11.9122  50  900  50   0
217      4.20384  50  900  50   0
218     -5.42268  50  900  50   0
219      3.90722  50  900  50   0
220     -13.0706  50  900  50   0
221      12.6679  50  900  50   0
222     -1.91137  50  900  50   0
223      18.3749  50  900  50   0
224      2.00126  50  900  50   0
225      1.42591  50  900  50   0
226      11.7396  50  900  50   0
227      10.4984  50  900  50   0
228      5.40001  50  900  50   0
229      13.9479  50  900  50   0
230      14.9146  50  900  50   0
231      14.8141  50  900  50   0
232      11.4895  50  900  50   0
233      10.5917  50  900  50   0
234      16.7478  50  900  50   0
235      18.5476  50  900  50   0
236      18.9884  50  900  50   0
237      11.2187  50  900  50   0
238      20.8181  50  900  50   0
239      7.18315  50  900  50   0
240       18.002  50  900  50   0
241      13.9265  50  900  50   0
242      21.9979  50  900  50   0
243      3.25716  50  900  50   0
244      19.1446  50  900  50   0
245       7.1589  50  900  50   0
246      12.6827  50  900  50   0
247      13.2514  50  900  50   0
248      9.20397  50  900  50   0
249      20.1701  50  900  50   0
250      7.70575  50  900  50   0
251      23.0273  50  900  50   0
252      -7.6584  50  900  50   0
253      23.0072  50  900  50   0
254     -3.84799  50  900  50   0
255      15.3296  50  900  50   0
256     0.852681  50  900  50   0
257      2.10256  50  900  50   0
258     -8.70669  50  900  50   0
259      1.21019  50  900  50   0
260    -0.412428  50  900  50   0
261     -4.21198  50  900  50   0
262      9.74542  50  900  50   0
263     0.630759  50  900  50   0
264       15.597  50  900  50   0
265      3.45824  50  900  50   0
266      4.48953  50  900  50   0
267      13.5922  50  900  50   0
268      4.51173  50  900  50   0
269      1.48206  50  900  50   0
270      7.20065  50  900  50   0
271      3.98493  50  900  50   0
272      16.1714  50  900  50   0
273     -2.83507  50  900  50   0
274      15.8535  50  900  50   0
275     -6.11301  50  900  50   0
276      15.7827  50  900  50   0
277     -9.51461  50  900  50   0
278      15.1179  50  900  50   0
279     -10.3339  50  900  50   0
280      17.8135  50  900  50   0
281     -6.26201  50  900  50   0
282      21.2935  50  900  50   0
283     -3.08169  50  900  50   0
284      21.6194  50  900  50   0
285     -3.28993  50  900  50   0
286      18.7303  50  900  50   0
287     -7.99944  50  900  50   0
288      12.1992  50  900  50   0
289     -11.2562  50  900  50   0
290     -4.28869  50  900  50   0
291     -4.88859  50  900  50   0
292      4.31155  50  900  50   0
293     -3.71135  50  900  50   0
294      7.19392  50  900  50   0
295      6.80414  50  900  50   0
296      6.32274  50  900  50   0
297    -0.221985  50  900  50   0
298      9.39941  50  900  50   0
299      6.71738  50  900  50   0
300      1.79375  50  900  50   0
301      4.24768  50  900  50   0
302     -1.19179  50  900  50   0
303      5.29194  50  900  50   0
304       9.3992  50  900  50   0
305     -9.59138  50  900  50   0
306      7.05458  50  900  50   0
307     -9.03492  50  900  50   0
308      2.10173  50  900  50   0
309     -9.69426  50  900  50   0
310     -1.42373  50  900  50   0
311      0.31012  50  900  50   0
312      18.0221  50  900  50   0
313       9.7352  50  900  50   0
314      14.3255  50  900  50   0
315      18.6156  50  900  50   0
316      16.0988  50  900  50   0
317      20.2125  50  900  50   0
318       20.776  50  900  50   0
319      21.6185  50  900  50   0
320      14.8281  50  900  50   0
321     -5.96919  50  900  50   0
322     -13.3163  50  900  50   0
323     -9.72165  50  900  50   0
324     -15.4516  50  900  50   0
325     -2.81548  50  900  50   0
326     -6.73321  50  900  50   0
327      1.71753  50  900  50   0
328     -4.66031  50  900  50   0
329      10.2945  50  900  50   0
330      2.24027  50  900  50   0
331      7.38473  50  900  50   0
332     -6.70737  50  900  50   0
333      7.61439  50  900  50   0
334     -3.56094  50  900  50   0
335      5.76358  50  900  50   0
336      6.52859  50  900  50   0
337      13.2123  50  900  50   0
338      1.23431  50  900  50   0
339      15.5849  50  900  50   0
340     -3.48945  50  900  50   0
341      20.2527  50  900  50   0
342     -7.67687  50  900  50   0
343       20.556  50  900  50   0
344     -3.73143  50  900  50   0
345       22.294  50  900  50   0
346     -15.0739  50  900  50   0
347      22.2392  50  900  50   0
348     -18.2408  50  900  50   0
349       19.577  50  900  50   0
350     -19.5964  50  900  50   0
351      22.4882  50  900  50   0
352     -21.9189  50  900  50   0
353     -4.55313  50  900  50   0
354     -3.28915  50  900  50   0
355     -11.9352  50  900  50   0
356      1.36989  50  900  50   0
357     -13.6833  50  900  50   0
358      7.00792  50  900  50   0
359     -16.4226  50  900  50   0
360      14.8514  50  900  50   0
361     -17.9614  50  900  50   0
362      20.2736  50  900  50   0
363     -21.6169  50  900  50   0
364       20.603  50  900  50   0
365     -17.9335  50  900  50   0
366       17.348  50  900  50   0
367     -18.8247  50  900  50   0
368      5.48957  50  900  50   0
369      -23.148  50  900  50   0
370     -0.76715  50  900  50   0
371     -23.1481  50  900  50   0
372      14.3669  50  900  50   0
373     -4.67112  50  900  50   0
374      2.75392  50  900  50   0
375      8.16223  50  900  50   0
376      11.4421  50  900  50   0
377     -7.97846  50  900  50   0
378     -11.0834  50  900  50   0
379     -1.97618  50  900  50   0
380      1.73387  50  900  50   0
381     -1.44797  50  900  50   0
382      4.79423  50  900  50   0
383     -5.61383  50  900  50   0
384    -0.332535  50  900  50   0
385      -5.1462  50  900  50   0
386     -10.3075  50  900  50   0
387      -17.102  50  900  50   0
388    -0.332835  50  900  50   0
389     -18.7561  50  900  50   0
390     -6.49302  50  900  50   0
391     -12.8246  50  900  50   0
392     -2.34759  50  900  50   0
393     -16.5327  50  900  50   0
394     -10.8148  50  900  50   0
395     -12.3828  50  900  50   0
396     -6.52656  50  900  50   0
397      -1.8835  50  900  50   0
398     -10.2479  50  900  50   0
399       -20.68  50  900  50   0
400    -0.256343  50  900  50   0
401     -19.8634  50  900  50   0
402      9.50216  50  900  50   0
403     -16.2437  50  900  50   0
404      3.42423  50  900  50   0
405     -15.4158  50  900  50   0
406     -7.82996  50  900  50   0
407     -6.60338  50  900  50   0
408     -5.85408  50  900  50   0
409     -8.11095  50  900  50   0
410       3.6743  50  900  50   0
411     0.882312  50  900  50   0
412     -16.9289  50  900  50   0
413    -0.149047  50  900  50   0
414      -14.145  50  900  50   0
415      -1.3314  50  900  50   0
416     -3.38528  50  900  50   0
417      7.27239  50  900  50   0
418      0.91236  50  900  50   0
419      3.62642  50  900  50   0
420     -12.6994  50  900  50   0
421      10.7213  50  900  50   0
422     -20.9956  50  900  50   0
423      3.85296  50  900  50   0
424     -19.8545  50  900  50   0
425      10.7512  50  900  50   0
426     -18.0454  50  900  50   0
427     -3.94282  50  900  50   0
428     -16.9179  50  900  50   0
429     -1.01004  50  900  50   0
430     -20.4126  50  900  50   0
431     -7.09745  50  900  50   0
432     -16.9662  50  900  50   0
433      -17.821  50  900  50   0
434     -16.9066  50  900  50   0
435     -12.9332  50  900  50   0
436     -12.9206  50  900  50   0
437       -13.98  50  900  50   0
438     -0.52133  50  900  50   0
439     -10.9827  50  900  50   0
440      4.99427  50  900  50   0
441     -13.9713  50  900  50   0
442      3.26871  50  900  50   0
443     -7.70123  50  900  50   0
444     -3.21357  50  900  50   0
445     -2.39636  50  900  50   0
446     -6.08997  50  900  50   0
447     -9.25668  50  900  50   0
448     -9.96324  50  900  50   0
449     -13.4016  50  900  50   0
450     -20.8226  50  900  50   0
451     -4.54609  50  900  50   0
452      -19.098  50  900  50   0
453     -9.70748  50  900  50   0
454     -13.5753  50  900  50   0
455      -11.192  50  900  50   0
456     -19.1783  50  900  50   0
457     -15.2653  50  900  50   0
458     -14.8703  50  900  50   0
459     -21.0107  50  900  50   0
460     -17.4308  50  900  50   0
461     -18.1484  50  900  50   0
462     -14.5963  50  900  50   0
463     -19.3401  50  900  50   0
464     -20.2183  50  900  50   0
465     -20.6239  50  900  50   0
466     -22.9379  50  900  50   0
467      -17.572  50  900  50   0
468     -23.1048  50  900  50   0
469     -14.7348  50  900  50   0
470     -23.1377  50  900  50   0
471     -10.7228  50  900  50   0
472     -23.1411  50  900  50   0
473     -7.68743  50  900  50   0
474     -23.1445  50  900  50   0
475      4.99525  50  900  50   0
476     -9.45491  50  900  50   0
477     -1.58182  50  900  50   0
478    -0.130922  50  900  50   0
479      2.05828  50  900  50   0
480     0.309315  50  900  50   0
481     -6.89097  50  900  50   0
482      9.20187  50  900  50   0
483     -8.80709  50  900  50   0
484     0.101213  50  900  50   0
485     -1.04183  50  900  50   0
486      12.8209  50  900  50   0
487      6.55745  50  900  50   0
488      15.5551  50  900  50   0
489      15.4059  50  900  50   0
490      14.0763  50  900  50   0
491      12.0091  50  900  50   0
492      17.5249  50  900  50   0
493      6.81863  50  900  50   0
494      21.8249  50  900  50   0
495      4.84571  50  900  50   0
496      19.2177  50  900  50   0
497      12.1932  50  900  50   0
498      21.0306  50  900  50   0
499    -0.344582  50  900  50   0
500      21.0594  50  900  50   0
501      3.29785  50  900  50   0
502      21.2542  50  900  50   0
503      -5.6931  50  900  50   0
504      17.7542  50  900  50   0
505      3.51137  50  900  50   0
506       12.159  50  900  50   0

# Format of ADC events:
# id num dwell delay freq phase
# ..  ..    ns    us   Hz   rad
[ADC]
1 1 1000000 50 0 0

# Format of delays:
# id delay (us)
[DELAYS]
1 3000000

# Sequence Shapes
[SHAPES]

shape_id 1
num_samples 1000
1
0
0
997

shape_id 2
num_samples 1000
0
0
998

