# Pulseq sequence file
# Created by MATLAB mr toolbox

[VERSION]
major 1
minor 2
revision 0

# Format of blocks:
#  #  D RF  GX  GY  GZ ADC
[BLOCKS]
  1  0  1   0   0   0  0
  2  0  0   1   2   0  1
  3  0  0   3   4   0  1
  4  0  0   5   6   0  1
  5  0  0   7   8   0  1
  6  0  0   9  10   0  1
  7  0  0  11  12   0  1
  8  0  0  13  14   0  1
  9  0  0  15  16   0  1
 10  0  0  17  18   0  1
 11  0  0  19  20   0  1
 12  0  0  21  22   0  1
 13  0  0  23  24   0  1
 14  0  0  25  26   0  1
 15  0  0  27  28   0  1
 16  0  0  29  30   0  1
 17  0  0  31  32   0  1
 18  0  0  33  34   0  1
 19  0  0  35  36   0  1
 20  0  0  37  38   0  1
 21  0  0  39  40   0  1
 22  0  0  41  42   0  1
 23  0  0  43  44   0  1
 24  0  0  45  46   0  1
 25  0  0  47  48   0  1
 26  1  0   0   0   0  0
 27  0  1   0   0   0  0
 28  0  0  49  50   0  1
 29  0  0  51  52   0  1
 30  0  0  53  54   0  1
 31  0  0  55  56   0  1
 32  0  0  57  58   0  1
 33  0  0  59  60   0  1
 34  0  0  61  62   0  1
 35  0  0  63  64   0  1
 36  0  0  65  66   0  1
 37  0  0  67  68   0  1
 38  0  0  69  70   0  1
 39  0  0  71  72   0  1
 40  0  0  73  74   0  1
 41  0  0  75  76   0  1
 42  0  0  77  78   0  1
 43  0  0  79  80   0  1
 44  0  0  81  82   0  1
 45  0  0  83  84   0  1
 46  0  0  85  86   0  1
 47  0  0  87  88   0  1
 48  0  0  89  90   0  1
 49  0  0  91  92   0  1
 50  0  0  93  94   0  1
 51  0  0  95  96   0  1
 52  1  0   0   0   0  0
 53  0  1   0   0   0  0
 54  0  0  97  98   0  1
 55  0  0  99 100   0  1
 56  0  0 101 102   0  1
 57  0  0 103 104   0  1
 58  0  0 105 106   0  1
 59  0  0 107 108   0  1
 60  0  0 109 110   0  1
 61  0  0 111 112   0  1
 62  0  0 113 114   0  1
 63  0  0 115 116   0  1
 64  0  0 117 118   0  1
 65  0  0 119 120   0  1
 66  0  0 121 122   0  1
 67  0  0 123 124   0  1
 68  0  0 125 126   0  1
 69  0  0 127 128   0  1
 70  0  0 129 130   0  1
 71  0  0 131 132   0  1
 72  0  0 133 134   0  1
 73  0  0 135 136   0  1
 74  0  0 137 138   0  1
 75  0  0 139 140   0  1
 76  0  0 141 142   0  1
 77  0  0 143 144   0  1
 78  1  0   0   0   0  0
 79  0  1   0   0   0  0
 80  0  0 145 146   0  1
 81  0  0 147 148   0  1
 82  0  0 149 150   0  1
 83  0  0 151 152   0  1
 84  0  0 153 154   0  1
 85  0  0 155 156   0  1
 86  0  0 157 158   0  1
 87  0  0 159 160   0  1
 88  0  0 161 162   0  1
 89  0  0 163 164   0  1
 90  0  0 165 166   0  1
 91  0  0 167 168   0  1
 92  0  0 169 170   0  1
 93  0  0 171 172   0  1
 94  0  0 173 174   0  1
 95  0  0 175 176   0  1
 96  0  0 177 178   0  1
 97  0  0 179 180   0  1
 98  0  0 181 182   0  1
 99  0  0 183 184   0  1
100  0  0 185 186   0  1
101  0  0 187 188   0  1
102  0  0 189 190   0  1
103  0  0 191 192   0  1
104  1  0   0   0   0  0
105  0  1   0   0   0  0
106  0  0 193 194   0  1
107  0  0 195 196   0  1
108  0  0 197 198   0  1
109  0  0 199 200   0  1
110  0  0 201 202   0  1
111  0  0 203 204   0  1
112  0  0 205 206   0  1
113  0  0 207 208   0  1
114  0  0 209 210   0  1
115  0  0 211 212   0  1
116  0  0 213 214   0  1
117  0  0 215 216   0  1
118  0  0 217 218   0  1
119  0  0 219 220   0  1
120  0  0 221 222   0  1
121  0  0 223 224   0  1
122  0  0 225 226   0  1
123  0  0 227 228   0  1
124  0  0 229 230   0  1
125  0  0 231 232   0  1
126  0  0 233 234   0  1
127  0  0 235 236   0  1
128  0  0 237 238   0  1
129  0  0 239 240   0  1
130  1  0   0   0   0  0
131  0  1   0   0   0  0
132  0  0 241 242   0  1
133  0  0 243 244   0  1
134  0  0 245 246   0  1
135  0  0 247 248   0  1
136  0  0 249 250   0  1
137  0  0 251 252   0  1
138  0  0 253 254   0  1
139  0  0 255 256   0  1
140  0  0 257 258   0  1
141  0  0 259 260   0  1
142  0  0 261 262   0  1
143  0  0 263 264   0  1
144  0  0 265 266   0  1
145  0  0 267 268   0  1
146  0  0 269 270   0  1
147  0  0 271 272   0  1
148  0  0 273 274   0  1
149  0  0 275 276   0  1
150  0  0 277 278   0  1
151  0  0 279 280   0  1
152  0  0 281 282   0  1
153  0  0 283 284   0  1
154  0  0 285 286   0  1
155  0  0 287 288   0  1
156  1  0   0   0   0  0
157  0  1   0   0   0  0
158  0  0 289 290   0  1
159  0  0 291 292   0  1
160  0  0 293 294   0  1
161  0  0 295 296   0  1
162  0  0 297 298   0  1
163  0  0 299 300   0  1
164  0  0 301 302   0  1
165  0  0 303 304   0  1
166  0  0 305 306   0  1
167  0  0 307 308   0  1
168  0  0 309 310   0  1
169  0  0 311 312   0  1
170  0  0 313 314   0  1
171  0  0 315 316   0  1
172  0  0 317 318   0  1
173  0  0 319 320   0  1
174  0  0 321 322   0  1
175  0  0 323 324   0  1
176  0  0 325 326   0  1
177  0  0 327 328   0  1
178  0  0 329 330   0  1
179  0  0 331 332   0  1
180  0  0 333 334   0  1
181  0  0 335 336   0  1
182  1  0   0   0   0  0
183  0  1   0   0   0  0
184  0  0 337 338   0  1
185  0  0 339 340   0  1
186  0  0 341 342   0  1
187  0  0 343 344   0  1
188  0  0 345 346   0  1
189  0  0 347 348   0  1
190  0  0 349 350   0  1
191  0  0 351 352   0  1
192  0  0 353 354   0  1
193  0  0 355 356   0  1
194  0  0 357 358   0  1
195  0  0 359 360   0  1
196  0  0 361 362   0  1
197  0  0 363 364   0  1
198  0  0 365 366   0  1
199  0  0 367 368   0  1
200  0  0 369 370   0  1
201  0  0 371 372   0  1
202  0  0 373 374   0  1
203  0  0 375 376   0  1
204  0  0 377 378   0  1
205  0  0 379 380   0  1
206  0  0 381 382   0  1
207  0  0 383 384   0  1
208  1  0   0   0   0  0
209  0  1   0   0   0  0
210  0  0 385 386   0  1
211  0  0 387 388   0  1
212  0  0 389 390   0  1
213  0  0 391 392   0  1
214  0  0 393 394   0  1
215  0  0 395 396   0  1
216  0  0 397 398   0  1
217  0  0 399 400   0  1
218  0  0 401 402   0  1
219  0  0 403 404   0  1
220  0  0 405 406   0  1
221  0  0 407 408   0  1
222  0  0 409 410   0  1
223  0  0 411 412   0  1
224  0  0 413 414   0  1
225  0  0 415 416   0  1
226  0  0 417 418   0  1
227  0  0 419 420   0  1
228  0  0 421 422   0  1
229  0  0 423 424   0  1
230  0  0 425 426   0  1
231  0  0 427 428   0  1
232  0  0 429 430   0  1
233  0  0 431 432   0  1
234  1  0   0   0   0  0
235  0  1   0   0   0  0
236  0  0 433 434   0  1
237  0  0 435 436   0  1
238  0  0 437 438   0  1
239  0  0 439 440   0  1
240  0  0 441 442   0  1
241  0  0 443 444   0  1
242  0  0 445 446   0  1
243  0  0 447 448   0  1
244  0  0 449 450   0  1
245  0  0 451 452   0  1
246  0  0 453 454   0  1
247  0  0 455 456   0  1
248  0  0 457 458   0  1
249  0  0 459 460   0  1
250  0  0 461 462   0  1
251  0  0 463 464   0  1
252  0  0 465 466   0  1
253  0  0 467 468   0  1
254  0  0 469 470   0  1
255  0  0 471 472   0  1
256  0  0 473 474   0  1
257  0  0 475 476   0  1
258  0  0 477 478   0  1
259  0  0 479 480   0  1
260  1  0   0   0   0  0
261  0  1   0   0   0  0
262  0  0 481 482   0  1
263  0  0 483 484   0  1
264  0  0 485 486   0  1
265  0  0 487 488   0  1
266  0  0 489 490   0  1
267  0  0 491 492   0  1
268  0  0 493 494   0  1
269  0  0 495 496   0  1
270  0  0 497 498   0  1
271  0  0 499 500   0  1
272  0  0 501 502   0  1
273  0  0 503 504   0  1
274  0  0 505 506   0  1
275  0  0 507 508   0  1
276  0  0 509 510   0  1
277  0  0 511 512   0  1
278  0  0 513 514   0  1
279  0  0 515 516   0  1
280  0  0 517 518   0  1
281  0  0 519 520   0  1
282  0  0 521 522   0  1
283  0  0 523 524   0  1
284  0  0 525 526   0  1
285  0  0 527 528   0  1
286  1  0   0   0   0  0
287  0  1   0   0   0  0
288  0  0 529 530   0  1
289  0  0 531 532   0  1
290  0  0 533 534   0  1
291  0  0 535 536   0  1
292  0  0 537 538   0  1
293  0  0 539 540   0  1
294  0  0 541 542   0  1
295  0  0 543 544   0  1
296  0  0 545 546   0  1
297  0  0 547 548   0  1
298  0  0 549 550   0  1
299  0  0 551 552   0  1
300  0  0 553 554   0  1
301  0  0 555 556   0  1
302  0  0 557 558   0  1
303  0  0 559 560   0  1
304  0  0 561 562   0  1
305  0  0 563 564   0  1
306  0  0 565 566   0  1
307  0  0 567 568   0  1
308  0  0 569 570   0  1
309  0  0 571 572   0  1
310  0  0 573 574   0  1
311  0  0 575 576   0  1
312  1  0   0   0   0  0
313  0  1   0   0   0  0
314  0  0 577 578   0  1
315  0  0 579 580   0  1
316  0  0 581 582   0  1
317  0  0 583 584   0  1
318  0  0 585 586   0  1
319  0  0 587 588   0  1
320  0  0 589 590   0  1
321  0  0 591 592   0  1
322  0  0 593 594   0  1
323  0  0 595 596   0  1
324  0  0 597 598   0  1
325  0  0 599 600   0  1
326  0  0 601 602   0  1
327  0  0 603 604   0  1
328  0  0 605 606   0  1
329  0  0 607 608   0  1
330  0  0 609 610   0  1
331  0  0 611 612   0  1
332  0  0 613 614   0  1
333  0  0 615 616   0  1
334  0  0 617 618   0  1
335  0  0 619 620   0  1
336  0  0 621 622   0  1
337  0  0 623 624   0  1
338  1  0   0   0   0  0
339  0  1   0   0   0  0
340  0  0 625 626   0  1
341  0  0 627 628   0  1
342  0  0 629 630   0  1
343  0  0 631 632   0  1
344  0  0 633 634   0  1
345  0  0 635 636   0  1
346  0  0 637 638   0  1
347  0  0 639 640   0  1
348  0  0 641 642   0  1
349  0  0 643 644   0  1
350  0  0 645 646   0  1
351  0  0 647 648   0  1
352  0  0 649 650   0  1
353  0  0 651 652   0  1
354  0  0 653 654   0  1
355  0  0 655 656   0  1
356  0  0 657 658   0  1
357  0  0 659 660   0  1
358  0  0 661 662   0  1
359  0  0 663 664   0  1
360  0  0 665 666   0  1
361  0  0 667 668   0  1
362  0  0 669 670   0  1
363  0  0 671 672   0  1
364  1  0   0   0   0  0
365  0  1   0   0   0  0
366  0  0 673 674   0  1
367  0  0 675 676   0  1
368  0  0 677 678   0  1
369  0  0 679 680   0  1
370  0  0 681 682   0  1
371  0  0 683 684   0  1
372  0  0 685 686   0  1
373  0  0 687 688   0  1
374  0  0 689 690   0  1
375  0  0 691 692   0  1
376  0  0 693 694   0  1
377  0  0 695 696   0  1
378  0  0 697 698   0  1
379  0  0 699 700   0  1
380  0  0 701 702   0  1
381  0  0 703 704   0  1
382  0  0 705 706   0  1
383  0  0 707 708   0  1
384  0  0 709 710   0  1
385  0  0 711 712   0  1
386  0  0 713 714   0  1
387  0  0 715 716   0  1
388  0  0 717 718   0  1
389  0  0 719 720   0  1
390  1  0   0   0   0  0
391  0  1   0   0   0  0
392  0  0 721 722   0  1
393  0  0 723 724   0  1
394  0  0 725 726   0  1
[RF]
1          250 1 2 0 0 0

# Format of trapezoid gradients:
# id amplitude rise flat fall delay
# ..      Hz/m   us   us   us    us
[TRAP]
 1     -6.46757   0 1000   0   0
 2      5.49063   0 1000   0   0
 3      8.36172   0 1000   0   0
 4     -5.09144   0 1000   0   0
 5    -0.394035   0 1000   0   0
 6      7.84691   0 1000   0   0
 7     0.253569   0 1000   0   0
 8       3.7862   0 1000   0   0
 9     -3.35346   0 1000   0   0
10    -0.276494   0 1000   0   0
11      3.25086   0 1000   0   0
12     -8.17176   0 1000   0   0
13      4.67447   0 1000   0   0
14      -2.7841   0 1000   0   0
15      4.72501   0 1000   0   0
16     -2.66225   0 1000   0   0
17    -0.534483   0 1000   0   0
18      3.68089   0 1000   0   0
19     -7.75798   0 1000   0   0
20     -3.97435   0 1000   0   0
21     -4.99467   0 1000   0   0
22      3.34685   0 1000   0   0
23      0.13474   0 1000   0   0
24      6.76872   0 1000   0   0
25     0.174587   0 1000   0   0
26     -3.68189   0 1000   0   0
27     -8.62906   0 1000   0   0
28     -5.04832   0 1000   0   0
29      8.83062   0 1000   0   0
30    -0.695246   0 1000   0   0
31      5.14245   0 1000   0   0
32     -4.02527   0 1000   0   0
33     -3.37302   0 1000   0   0
34       -2.527   0 1000   0   0
35     -9.30644   0 1000   0   0
36     -9.96838   0 1000   0   0
37      9.39133   0 1000   0   0
38     -11.7793   0 1000   0   0
39     -3.70484   0 1000   0   0
40     -0.40479   0 1000   0   0
41      -8.3863   0 1000   0   0
42     0.502935   0 1000   0   0
43      13.3322   0 1000   0   0
44      10.9929   0 1000   0   0
45     -1.28906   0 1000   0   0
46      5.94667   0 1000   0   0
47    -0.881511   0 1000   0   0
48      8.30421   0 1000   0   0
49     -2.15115   0 1000   0   0
50     -8.30154   0 1000   0   0
51     -5.76135   0 1000   0   0
52      4.55739   0 1000   0   0
53      1.57197   0 1000   0   0
54       13.352   0 1000   0   0
55      7.28257   0 1000   0   0
56     -13.4394   0 1000   0   0
57      3.45199   0 1000   0   0
58     -9.65566   0 1000   0   0
59     -2.97058   0 1000   0   0
60     0.476585   0 1000   0   0
61      2.27399   0 1000   0   0
62      3.96039   0 1000   0   0
63      10.7695   0 1000   0   0
64     -2.55397   0 1000   0   0
65      1.59746   0 1000   0   0
66      9.92291   0 1000   0   0
67      6.84542   0 1000   0   0
68    -0.595223   0 1000   0   0
69    -0.684389   0 1000   0   0
70      3.65719   0 1000   0   0
71     -15.5073   0 1000   0   0
72     -4.56903   0 1000   0   0
73     -1.55485   0 1000   0   0
74     -15.9187   0 1000   0   0
75      -8.7112   0 1000   0   0
76      6.09094   0 1000   0   0
77     -2.61323   0 1000   0   0
78      13.7474   0 1000   0   0
79     -4.11418   0 1000   0   0
80       11.257   0 1000   0   0
81      5.95732   0 1000   0   0
82     -7.55756   0 1000   0   0
83     -7.05836   0 1000   0   0
84     -1.17171   0 1000   0   0
85      8.68884   0 1000   0   0
86      5.59204   0 1000   0   0
87     -2.67394   0 1000   0   0
88     -17.2586   0 1000   0   0
89     0.854007   0 1000   0   0
90      4.15037   0 1000   0   0
91     -16.6761   0 1000   0   0
92      4.88126   0 1000   0   0
93     -13.1532   0 1000   0   0
94      4.29009   0 1000   0   0
95     -12.0279   0 1000   0   0
96     -8.06494   0 1000   0   0
97      4.41804   0 1000   0   0
98      15.6096   0 1000   0   0
99     0.482807   0 1000   0   0
100     -5.08784   0 1000   0   0
101     -14.2198   0 1000   0   0
102      11.6228   0 1000   0   0
103      -6.2019   0 1000   0   0
104     -18.7226   0 1000   0   0
105     0.651592   0 1000   0   0
106     -3.24001   0 1000   0   0
107     -14.8403   0 1000   0   0
108     -3.99799   0 1000   0   0
109      7.66436   0 1000   0   0
110      8.01626   0 1000   0   0
111     -9.51814   0 1000   0   0
112     -3.65886   0 1000   0   0
113      9.85588   0 1000   0   0
114      7.13911   0 1000   0   0
115       5.0307   0 1000   0   0
116      1.55296   0 1000   0   0
117      13.3403   0 1000   0   0
118      8.95426   0 1000   0   0
119     -1.24189   0 1000   0   0
120      15.5366   0 1000   0   0
121      4.81271   0 1000   0   0
122     -1.42249   0 1000   0   0
123      4.11509   0 1000   0   0
124      2.42292   0 1000   0   0
125     -3.97512   0 1000   0   0
126     -15.9351   0 1000   0   0
127   -0.0594595   0 1000   0   0
128     -3.90827   0 1000   0   0
129      1.51816   0 1000   0   0
130      -13.791   0 1000   0   0
131     -12.2848   0 1000   0   0
132      5.60448   0 1000   0   0
133      12.1255   0 1000   0   0
134     -1.35324   0 1000   0   0
135      3.90805   0 1000   0   0
136     0.881079   0 1000   0   0
137     -8.53682   0 1000   0   0
138     -11.3571   0 1000   0   0
139       10.864   0 1000   0   0
140     -2.11571   0 1000   0   0
141     -1.94435   0 1000   0   0
142      10.0963   0 1000   0   0
143       9.3813   0 1000   0   0
144    -0.694681   0 1000   0   0
145      -3.0634   0 1000   0   0
146     0.191735   0 1000   0   0
147     -4.29198   0 1000   0   0
148      3.16976   0 1000   0   0
149     -9.71644   0 1000   0   0
150     -4.49809   0 1000   0   0
151      9.06853   0 1000   0   0
152     -6.71083   0 1000   0   0
153      3.81778   0 1000   0   0
154     -8.58321   0 1000   0   0
155     -5.53163   0 1000   0   0
156      3.01291   0 1000   0   0
157       9.5703   0 1000   0   0
158      2.26893   0 1000   0   0
159     -6.30584   0 1000   0   0
160     -8.90004   0 1000   0   0
161      3.63196   0 1000   0   0
162     -2.08524   0 1000   0   0
163      3.96154   0 1000   0   0
164     -1.81307   0 1000   0   0
165      3.56611   0 1000   0   0
166     -4.55664   0 1000   0   0
167      3.82396   0 1000   0   0
168     -2.04866   0 1000   0   0
169     -9.26245   0 1000   0   0
170       13.468   0 1000   0   0
171      14.3006   0 1000   0   0
172     -10.5876   0 1000   0   0
173     0.155737   0 1000   0   0
174      22.7921   0 1000   0   0
175     -3.98039   0 1000   0   0
176     0.786816   0 1000   0   0
177     0.536892   0 1000   0   0
178       4.4305   0 1000   0   0
179      4.32506   0 1000   0   0
180      6.52524   0 1000   0   0
181      18.0428   0 1000   0   0
182     -6.62439   0 1000   0   0
183      15.2976   0 1000   0   0
184     -7.25469   0 1000   0   0
185     -11.6146   0 1000   0   0
186      10.7713   0 1000   0   0
187       -17.39   0 1000   0   0
188     -9.59013   0 1000   0   0
189     -8.26492   0 1000   0   0
190      10.7552   0 1000   0   0
191     -12.3628   0 1000   0   0
192   -0.0488143   0 1000   0   0
193     -1.39544   0 1000   0   0
194       8.5534   0 1000   0   0
195      10.5495   0 1000   0   0
196      8.21563   0 1000   0   0
197     -1.61345   0 1000   0   0
198     -8.07777   0 1000   0   0
199     -3.31104   0 1000   0   0
200     -2.12802   0 1000   0   0
201   -0.0753464   0 1000   0   0
202     -10.2554   0 1000   0   0
203     -2.03782   0 1000   0   0
204      12.9057   0 1000   0   0
205     -8.41842   0 1000   0   0
206     -2.54917   0 1000   0   0
207     -3.87662   0 1000   0   0
208     -6.09561   0 1000   0   0
209      10.8929   0 1000   0   0
210     -2.59966   0 1000   0   0
211      4.74509   0 1000   0   0
212      21.9986   0 1000   0   0
213      14.8569   0 1000   0   0
214     -14.1721   0 1000   0   0
215         9.72   0 1000   0   0
216      -1.0907   0 1000   0   0
217      1.30131   0 1000   0   0
218      4.02624   0 1000   0   0
219      1.18699   0 1000   0   0
220      4.64499   0 1000   0   0
221     -3.97046   0 1000   0   0
222       6.5396   0 1000   0   0
223     -11.7555   0 1000   0   0
224     -4.65307   0 1000   0   0
225     -7.10646   0 1000   0   0
226      6.38302   0 1000   0   0
227      3.60403   0 1000   0   0
228      11.5263   0 1000   0   0
229     -8.28523   0 1000   0   0
230     -7.00102   0 1000   0   0
231     -12.9268   0 1000   0   0
232      11.9992   0 1000   0   0
233     -18.2382   0 1000   0   0
234     -9.70436   0 1000   0   0
235       9.1717   0 1000   0   0
236     -12.6407   0 1000   0   0
237     -9.18439   0 1000   0   0
238     -2.51752   0 1000   0   0
239      14.4053   0 1000   0   0
240       2.2865   0 1000   0   0
241      -4.6198   0 1000   0   0
242      13.8806   0 1000   0   0
243    -0.326595   0 1000   0   0
244      8.51935   0 1000   0   0
245      -3.0767   0 1000   0   0
246     -6.64302   0 1000   0   0
247      8.43131   0 1000   0   0
248     -13.5342   0 1000   0   0
249      4.73383   0 1000   0   0
250      12.0568   0 1000   0   0
251      -6.5926   0 1000   0   0
252      0.22093   0 1000   0   0
253    -0.925558   0 1000   0   0
254     -4.12448   0 1000   0   0
255      3.66677   0 1000   0   0
256      2.39318   0 1000   0   0
257     -12.5371   0 1000   0   0
258     -4.08171   0 1000   0   0
259     -2.40571   0 1000   0   0
260     -9.23758   0 1000   0   0
261     -1.95497   0 1000   0   0
262     -5.01954   0 1000   0   0
263      11.9776   0 1000   0   0
264     -3.27154   0 1000   0   0
265     -8.38531   0 1000   0   0
266      5.19256   0 1000   0   0
267        15.94   0 1000   0   0
268      7.08435   0 1000   0   0
269      4.15284   0 1000   0   0
270     -5.22041   0 1000   0   0
271      7.14022   0 1000   0   0
272     0.438151   0 1000   0   0
273     -10.0437   0 1000   0   0
274      1.54676   0 1000   0   0
275     -10.9639   0 1000   0   0
276     -2.14076   0 1000   0   0
277      7.32182   0 1000   0   0
278     -4.85792   0 1000   0   0
279       7.4667   0 1000   0   0
280     -10.1509   0 1000   0   0
281      2.15525   0 1000   0   0
282     -5.12841   0 1000   0   0
283    -0.541347   0 1000   0   0
284      9.88667   0 1000   0   0
285      7.20556   0 1000   0   0
286     -9.34241   0 1000   0   0
287    -0.121771   0 1000   0   0
288     -9.91631   0 1000   0   0
289     -9.59334   0 1000   0   0
290      4.00865   0 1000   0   0
291      2.65777   0 1000   0   0
292      17.0794   0 1000   0   0
293     -5.68666   0 1000   0   0
294      4.06204   0 1000   0   0
295     -10.0114   0 1000   0   0
296       -11.32   0 1000   0   0
297      4.90505   0 1000   0   0
298     -3.62755   0 1000   0   0
299     0.501131   0 1000   0   0
300     -5.60651   0 1000   0   0
301       8.8128   0 1000   0   0
302     -7.66342   0 1000   0   0
303      7.44736   0 1000   0   0
304      8.50767   0 1000   0   0
305      9.09626   0 1000   0   0
306     -2.00548   0 1000   0   0
307      8.22457   0 1000   0   0
308    -0.795017   0 1000   0   0
309      6.57026   0 1000   0   0
310       6.1627   0 1000   0   0
311     -4.41932   0 1000   0   0
312      1.82879   0 1000   0   0
313     -4.27651   0 1000   0   0
314     -1.41658   0 1000   0   0
315     -5.64293   0 1000   0   0
316      4.27165   0 1000   0   0
317     -4.98161   0 1000   0   0
318      4.43259   0 1000   0   0
319     -1.52872   0 1000   0   0
320      5.74243   0 1000   0   0
321      5.44054   0 1000   0   0
322      5.63966   0 1000   0   0
323     -5.02677   0 1000   0   0
324      7.07945   0 1000   0   0
325      3.39872   0 1000   0   0
326      5.35317   0 1000   0   0
327     -6.87587   0 1000   0   0
328     -18.6392   0 1000   0   0
329     0.898362   0 1000   0   0
330      10.2079   0 1000   0   0
331      12.9756   0 1000   0   0
332     -11.2213   0 1000   0   0
333     -16.2087   0 1000   0   0
334      10.0176   0 1000   0   0
335      16.8811   0 1000   0   0
336      18.6305   0 1000   0   0
337      2.24824   0 1000   0   0
338     -2.15982   0 1000   0   0
339      8.35225   0 1000   0   0
340      8.61735   0 1000   0   0
341      13.6915   0 1000   0   0
342     -11.2066   0 1000   0   0
343     -5.33427   0 1000   0   0
344     -4.80356   0 1000   0   0
345     0.145283   0 1000   0   0
346      6.36613   0 1000   0   0
347      5.25448   0 1000   0   0
348      13.7758   0 1000   0   0
349      7.12266   0 1000   0   0
350     -10.1212   0 1000   0   0
351      12.3132   0 1000   0   0
352     -2.40921   0 1000   0   0
353      -11.442   0 1000   0   0
354     -8.36666   0 1000   0   0
355     -7.47765   0 1000   0   0
356      1.79204   0 1000   0   0
357       7.9088   0 1000   0   0
358      3.71921   0 1000   0   0
359     -13.0187   0 1000   0   0
360      5.21328   0 1000   0   0
361      25.2073   0 1000   0   0
362      13.7393   0 1000   0   0
363      19.7906   0 1000   0   0
364      4.51141   0 1000   0   0
365        13.72   0 1000   0   0
366     -8.83012   0 1000   0   0
367     -4.42387   0 1000   0   0
368     -18.3578   0 1000   0   0
369     -5.88005   0 1000   0   0
370      3.37618   0 1000   0   0
371      1.59681   0 1000   0   0
372     -6.73992   0 1000   0   0
373     -10.8858   0 1000   0   0
374     -3.43881   0 1000   0   0
375     -10.9881   0 1000   0   0
376     -12.5232   0 1000   0   0
377      2.51261   0 1000   0   0
378     -27.4069   0 1000   0   0
379     -3.43929   0 1000   0   0
380      35.2144   0 1000   0   0
381     -18.5563   0 1000   0   0
382     -10.9387   0 1000   0   0
383      -7.1673   0 1000   0   0
384     -14.8002   0 1000   0   0
385     -5.24157   0 1000   0   0
386       2.0614   0 1000   0   0
387     -3.58242   0 1000   0   0
388     -1.46518   0 1000   0   0
389     -2.75642   0 1000   0   0
390     -9.68871   0 1000   0   0
391     -4.55789   0 1000   0   0
392      1.85585   0 1000   0   0
393       -9.068   0 1000   0   0
394      6.54907   0 1000   0   0
395       4.2531   0 1000   0   0
396     -2.54768   0 1000   0   0
397     -7.03233   0 1000   0   0
398      6.99804   0 1000   0   0
399      9.30701   0 1000   0   0
400     -3.76584   0 1000   0   0
401      -11.525   0 1000   0   0
402     -6.60402   0 1000   0   0
403      15.5825   0 1000   0   0
404     -7.45178   0 1000   0   0
405     -8.81263   0 1000   0   0
406     -6.67972   0 1000   0   0
407     -4.62622   0 1000   0   0
408     -11.9772   0 1000   0   0
409      15.7056   0 1000   0   0
410     -13.6615   0 1000   0   0
411      5.80753   0 1000   0   0
412      17.9924   0 1000   0   0
413      3.65653   0 1000   0   0
414      1.78202   0 1000   0   0
415     0.178727   0 1000   0   0
416     -9.64628   0 1000   0   0
417      11.1462   0 1000   0   0
418     -2.69076   0 1000   0   0
419     -1.09489   0 1000   0   0
420      14.1529   0 1000   0   0
421      11.9935   0 1000   0   0
422      7.77419   0 1000   0   0
423      8.00774   0 1000   0   0
424     -8.65654   0 1000   0   0
425      1.91247   0 1000   0   0
426     -12.0055   0 1000   0   0
427    -0.706571   0 1000   0   0
428     0.893721   0 1000   0   0
429     -14.5855   0 1000   0   0
430    -0.334871   0 1000   0   0
431      -3.7095   0 1000   0   0
432      6.65347   0 1000   0   0
433      3.21452   0 1000   0   0
434      4.65055   0 1000   0   0
435      1.87025   0 1000   0   0
436     -11.3224   0 1000   0   0
437     -15.6395   0 1000   0   0
438      -11.321   0 1000   0   0
439      5.06409   0 1000   0   0
440      4.72824   0 1000   0   0
441     -1.78695   0 1000   0   0
442      4.00112   0 1000   0   0
443       8.5964   0 1000   0   0
444      -9.1867   0 1000   0   0
445      10.3315   0 1000   0   0
446     -10.4482   0 1000   0   0
447      2.74899   0 1000   0   0
448       15.174   0 1000   0   0
449    -0.088906   0 1000   0   0
450     -9.11579   0 1000   0   0
451       -2.373   0 1000   0   0
452      5.48427   0 1000   0   0
453     0.554163   0 1000   0   0
454      9.49882   0 1000   0   0
455      7.23582   0 1000   0   0
456     -4.81029   0 1000   0   0
457      9.30911   0 1000   0   0
458      8.66742   0 1000   0   0
459     -5.90563   0 1000   0   0
460      6.60723   0 1000   0   0
461     -14.3468   0 1000   0   0
462     -10.6215   0 1000   0   0
463      2.64998   0 1000   0   0
464      4.05149   0 1000   0   0
465    -0.159874   0 1000   0   0
466      5.17447   0 1000   0   0
467      3.26772   0 1000   0   0
468      11.9989   0 1000   0   0
469     -2.45097   0 1000   0   0
470      2.85942   0 1000   0   0
471      14.2271   0 1000   0   0
472      1.49158   0 1000   0   0
473      7.50649   0 1000   0   0
474     -10.0851   0 1000   0   0
475    -0.680312   0 1000   0   0
476     -8.06031   0 1000   0   0
477      10.9696   0 1000   0   0
478      5.33783   0 1000   0   0
479      26.8932   0 1000   0   0
480     -6.89215   0 1000   0   0
481      3.33763   0 1000   0   0
482     -14.0471   0 1000   0   0
483     -4.56284   0 1000   0   0
484      14.5852   0 1000   0   0
485      7.15746   0 1000   0   0
486      7.53794   0 1000   0   0
487     -3.96528   0 1000   0   0
488     -1.10601   0 1000   0   0
489     -2.13243   0 1000   0   0
490     -12.5496   0 1000   0   0
491     -6.95835   0 1000   0   0
492      6.43727   0 1000   0   0
493     -1.14348   0 1000   0   0
494     -5.59707   0 1000   0   0
495      11.5453   0 1000   0   0
496       5.1907   0 1000   0   0
497     -7.06221   0 1000   0   0
498     -5.83079   0 1000   0   0
499      8.42265   0 1000   0   0
500      1.63592   0 1000   0   0
501     0.638136   0 1000   0   0
502     -14.6156   0 1000   0   0
503     -7.24006   0 1000   0   0
504       15.965   0 1000   0   0
505      6.25899   0 1000   0   0
506     -7.56173   0 1000   0   0
507      23.0002   0 1000   0   0
508      -5.4756   0 1000   0   0
509     -13.0224   0 1000   0   0
510     -16.5887   0 1000   0   0
511     -2.83927   0 1000   0   0
512     -18.6511   0 1000   0   0
513     -9.89814   0 1000   0   0
514      16.7957   0 1000   0   0
515     -8.34243   0 1000   0   0
516      10.3428   0 1000   0   0
517     -11.3554   0 1000   0   0
518       6.4344   0 1000   0   0
519      10.7776   0 1000   0   0
520      -34.469   0 1000   0   0
521      3.12514   0 1000   0   0
522     -14.6565   0 1000   0   0
523     -6.52041   0 1000   0   0
524      8.69585   0 1000   0   0
525     -7.59953   0 1000   0   0
526      21.1472   0 1000   0   0
527      4.36561   0 1000   0   0
528       6.1317   0 1000   0   0
529      -2.8672   0 1000   0   0
530      5.56451   0 1000   0   0
531     -1.42978   0 1000   0   0
532     -10.3975   0 1000   0   0
533     -1.99607   0 1000   0   0
534      11.0549   0 1000   0   0
535      7.06216   0 1000   0   0
536      2.72929   0 1000   0   0
537     -0.35622   0 1000   0   0
538      8.13424   0 1000   0   0
539     -4.47468   0 1000   0   0
540    -0.652858   0 1000   0   0
541     -10.1358   0 1000   0   0
542     0.286983   0 1000   0   0
543       9.2789   0 1000   0   0
544      12.2179   0 1000   0   0
545     -14.7909   0 1000   0   0
546     -2.85666   0 1000   0   0
547     -5.96175   0 1000   0   0
548      1.49978   0 1000   0   0
549      -15.837   0 1000   0   0
550      4.18143   0 1000   0   0
551       8.5948   0 1000   0   0
552     -10.6786   0 1000   0   0
553    -0.594461   0 1000   0   0
554     -10.5383   0 1000   0   0
555        2.101   0 1000   0   0
556     -3.27772   0 1000   0   0
557      2.10017   0 1000   0   0
558     -6.32958   0 1000   0   0
559      6.94912   0 1000   0   0
560      5.78183   0 1000   0   0
561    -0.288254   0 1000   0   0
562      12.7937   0 1000   0   0
563     -1.06636   0 1000   0   0
564     -18.3447   0 1000   0   0
565        -3.93   0 1000   0   0
566     -4.19483   0 1000   0   0
567      6.62838   0 1000   0   0
568     -9.00388   0 1000   0   0
569     -6.51157   0 1000   0   0
570     -2.20405   0 1000   0   0
571     -7.43066   0 1000   0   0
572     -5.74241   0 1000   0   0
573     0.858264   0 1000   0   0
574     -43.2454   0 1000   0   0
575     -51.6146   0 1000   0   0
576         30.4   0 1000   0   0
577      1.27206   0 1000   0   0
578     -9.40843   0 1000   0   0
579     -7.57783   0 1000   0   0
580      7.38162   0 1000   0   0
581     -0.73004   0 1000   0   0
582      12.6181   0 1000   0   0
583      6.00459   0 1000   0   0
584     -7.13443   0 1000   0   0
585      13.1715   0 1000   0   0
586     -6.27055   0 1000   0   0
