# Pulseq sequence file
# Created by MATLAB mr toolbox

[VERSION]
major 1
minor 2
revision 1

[DEFINITIONS]
FOV 256 256 5 
Name gre 

# Format of blocks:
#  #  D RF  GX  GY  GZ ADC
[BLOCKS]
  1  0  1   0   0   1  0
  2  0  0   2   3   4  0
  3  1  0   0   0   0  0
  4  0  0   5   0   0  1
  5  2  0   0   0   0  0
  6  0  1   0   0   1  0
  7  0  0   2   6   4  0
  8  1  0   0   0   0  0
  9  0  0   5   0   0  1
 10  2  0   0   0   0  0
 11  0  1   0   0   1  0
 12  0  0   2   7   4  0
 13  1  0   0   0   0  0
 14  0  0   5   0   0  1
 15  2  0   0   0   0  0
 16  0  1   0   0   1  0
 17  0  0   2   8   4  0
 18  1  0   0   0   0  0
 19  0  0   5   0   0  1
 20  2  0   0   0   0  0
 21  0  1   0   0   1  0
 22  0  0   2   9   4  0
 23  1  0   0   0   0  0
 24  0  0   5   0   0  1
 25  2  0   0   0   0  0
 26  0  1   0   0   1  0
 27  0  0   2  10   4  0
 28  1  0   0   0   0  0
 29  0  0   5   0   0  1
 30  2  0   0   0   0  0
 31  0  1   0   0   1  0
 32  0  0   2  11   4  0
 33  1  0   0   0   0  0
 34  0  0   5   0   0  1
 35  2  0   0   0   0  0
 36  0  1   0   0   1  0
 37  0  0   2  12   4  0
 38  1  0   0   0   0  0
 39  0  0   5   0   0  1
 40  2  0   0   0   0  0
 41  0  1   0   0   1  0
 42  0  0   2  13   4  0
 43  1  0   0   0   0  0
 44  0  0   5   0   0  1
 45  2  0   0   0   0  0
 46  0  1   0   0   1  0
 47  0  0   2  14   4  0
 48  1  0   0   0   0  0
 49  0  0   5   0   0  1
 50  2  0   0   0   0  0
 51  0  1   0   0   1  0
 52  0  0   2  15   4  0
 53  1  0   0   0   0  0
 54  0  0   5   0   0  1
 55  2  0   0   0   0  0
 56  0  1   0   0   1  0
 57  0  0   2  16   4  0
 58  1  0   0   0   0  0
 59  0  0   5   0   0  1
 60  2  0   0   0   0  0
 61  0  1   0   0   1  0
 62  0  0   2  17   4  0
 63  1  0   0   0   0  0
 64  0  0   5   0   0  1
 65  2  0   0   0   0  0
 66  0  1   0   0   1  0
 67  0  0   2  18   4  0
 68  1  0   0   0   0  0
 69  0  0   5   0   0  1
 70  2  0   0   0   0  0
 71  0  1   0   0   1  0
 72  0  0   2  19   4  0
 73  1  0   0   0   0  0
 74  0  0   5   0   0  1
 75  2  0   0   0   0  0
 76  0  1   0   0   1  0
 77  0  0   2  20   4  0
 78  1  0   0   0   0  0
 79  0  0   5   0   0  1
 80  2  0   0   0   0  0
 81  0  1   0   0   1  0
 82  0  0   2  21   4  0
 83  1  0   0   0   0  0
 84  0  0   5   0   0  1
 85  2  0   0   0   0  0
 86  0  1   0   0   1  0
 87  0  0   2  22   4  0
 88  1  0   0   0   0  0
 89  0  0   5   0   0  1
 90  2  0   0   0   0  0
 91  0  1   0   0   1  0
 92  0  0   2  23   4  0
 93  1  0   0   0   0  0
 94  0  0   5   0   0  1
 95  2  0   0   0   0  0
 96  0  1   0   0   1  0
 97  0  0   2  24   4  0
 98  1  0   0   0   0  0
 99  0  0   5   0   0  1
100  2  0   0   0   0  0
101  0  1   0   0   1  0
102  0  0   2  25   4  0
103  1  0   0   0   0  0
104  0  0   5   0   0  1
105  2  0   0   0   0  0
106  0  1   0   0   1  0
107  0  0   2  26   4  0
108  1  0   0   0   0  0
109  0  0   5   0   0  1
110  2  0   0   0   0  0
111  0  1   0   0   1  0
112  0  0   2  27   4  0
113  1  0   0   0   0  0
114  0  0   5   0   0  1
115  2  0   0   0   0  0
116  0  1   0   0   1  0
117  0  0   2  28   4  0
118  1  0   0   0   0  0
119  0  0   5   0   0  1
120  2  0   0   0   0  0
121  0  1   0   0   1  0
122  0  0   2  29   4  0
123  1  0   0   0   0  0
124  0  0   5   0   0  1
125  2  0   0   0   0  0
126  0  1   0   0   1  0
127  0  0   2  30   4  0
128  1  0   0   0   0  0
129  0  0   5   0   0  1
130  2  0   0   0   0  0
131  0  1   0   0   1  0
132  0  0   2  31   4  0
133  1  0   0   0   0  0
134  0  0   5   0   0  1
135  2  0   0   0   0  0
136  0  1   0   0   1  0
137  0  0   2  32   4  0
138  1  0   0   0   0  0
139  0  0   5   0   0  1
140  2  0   0   0   0  0
141  0  1   0   0   1  0
142  0  0   2  33   4  0
143  1  0   0   0   0  0
144  0  0   5   0   0  1
145  2  0   0   0   0  0
146  0  1   0   0   1  0
147  0  0   2  34   4  0
148  1  0   0   0   0  0
149  0  0   5   0   0  1
150  2  0   0   0   0  0
151  0  1   0   0   1  0
152  0  0   2  35   4  0
153  1  0   0   0   0  0
154  0  0   5   0   0  1
155  2  0   0   0   0  0
156  0  1   0   0   1  0
157  0  0   2  36   4  0
158  1  0   0   0   0  0
159  0  0   5   0   0  1
160  2  0   0   0   0  0
161  0  1   0   0   1  0
162  0  0   2  37   4  0
163  1  0   0   0   0  0
164  0  0   5   0   0  1
165  2  0   0   0   0  0
166  0  1   0   0   1  0
167  0  0   2  38   4  0
168  1  0   0   0   0  0
169  0  0   5   0   0  1
170  2  0   0   0   0  0
171  0  1   0   0   1  0
172  0  0   2  39   4  0
173  1  0   0   0   0  0
174  0  0   5   0   0  1
175  2  0   0   0   0  0
176  0  1   0   0   1  0
177  0  0   2  40   4  0
178  1  0   0   0   0  0
179  0  0   5   0   0  1
180  2  0   0   0   0  0
181  0  1   0   0   1  0
182  0  0   2  41   4  0
183  1  0   0   0   0  0
184  0  0   5   0   0  1
185  2  0   0   0   0  0
186  0  1   0   0   1  0
187  0  0   2  42   4  0
188  1  0   0   0   0  0
189  0  0   5   0   0  1
190  2  0   0   0   0  0
191  0  1   0   0   1  0
192  0  0   2  43   4  0
193  1  0   0   0   0  0
194  0  0   5   0   0  1
195  2  0   0   0   0  0
196  0  1   0   0   1  0
197  0  0   2  44   4  0
198  1  0   0   0   0  0
199  0  0   5   0   0  1
200  2  0   0   0   0  0
201  0  1   0   0   1  0
202  0  0   2  45   4  0
203  1  0   0   0   0  0
204  0  0   5   0   0  1
205  2  0   0   0   0  0
206  0  1   0   0   1  0
207  0  0   2  46   4  0
208  1  0   0   0   0  0
209  0  0   5   0   0  1
210  2  0   0   0   0  0
211  0  1   0   0   1  0
212  0  0   2  47   4  0
213  1  0   0   0   0  0
214  0  0   5   0   0  1
215  2  0   0   0   0  0
216  0  1   0   0   1  0
217  0  0   2  48   4  0
218  1  0   0   0   0  0
219  0  0   5   0   0  1
220  2  0   0   0   0  0
221  0  1   0   0   1  0
222  0  0   2  49   4  0
223  1  0   0   0   0  0
224  0  0   5   0   0  1
225  2  0   0   0   0  0
226  0  1   0   0   1  0
227  0  0   2  50   4  0
228  1  0   0   0   0  0
229  0  0   5   0   0  1
230  2  0   0   0   0  0
231  0  1   0   0   1  0
232  0  0   2  51   4  0
233  1  0   0   0   0  0
234  0  0   5   0   0  1
235  2  0   0   0   0  0
236  0  1   0   0   1  0
237  0  0   2  52   4  0
238  1  0   0   0   0  0
239  0  0   5   0   0  1
240  2  0   0   0   0  0
241  0  1   0   0   1  0
242  0  0   2  53   4  0
243  1  0   0   0   0  0
244  0  0   5   0   0  1
245  2  0   0   0   0  0
246  0  1   0   0   1  0
247  0  0   2  54   4  0
248  1  0   0   0   0  0
249  0  0   5   0   0  1
250  2  0   0   0   0  0
251  0  1   0   0   1  0
252  0  0   2  55   4  0
253  1  0   0   0   0  0
254  0  0   5   0   0  1
255  2  0   0   0   0  0
256  0  1   0   0   1  0
257  0  0   2  56   4  0
258  1  0   0   0   0  0
259  0  0   5   0   0  1
260  2  0   0   0   0  0
261  0  1   0   0   1  0
262  0  0   2  57   4  0
263  1  0   0   0   0  0
264  0  0   5   0   0  1
265  2  0   0   0   0  0
266  0  1   0   0   1  0
267  0  0   2  58   4  0
268  1  0   0   0   0  0
269  0  0   5   0   0  1
270  2  0   0   0   0  0
271  0  1   0   0   1  0
272  0  0   2  59   4  0
273  1  0   0   0   0  0
274  0  0   5   0   0  1
275  2  0   0   0   0  0
276  0  1   0   0   1  0
277  0  0   2  60   4  0
278  1  0   0   0   0  0
279  0  0   5   0   0  1
280  2  0   0   0   0  0
281  0  1   0   0   1  0
282  0  0   2  61   4  0
283  1  0   0   0   0  0
284  0  0   5   0   0  1
285  2  0   0   0   0  0
286  0  1   0   0   1  0
287  0  0   2  62   4  0
288  1  0   0   0   0  0
289  0  0   5   0   0  1
290  2  0   0   0   0  0
291  0  1   0   0   1  0
292  0  0   2  63   4  0
293  1  0   0   0   0  0
294  0  0   5   0   0  1
295  2  0   0   0   0  0
296  0  1   0   0   1  0
297  0  0   2  64   4  0
298  1  0   0   0   0  0
299  0  0   5   0   0  1
300  2  0   0   0   0  0
301  0  1   0   0   1  0
302  0  0   2  65   4  0
303  1  0   0   0   0  0
304  0  0   5   0   0  1
305  2  0   0   0   0  0
306  0  1   0   0   1  0
307  0  0   2  66   4  0
308  1  0   0   0   0  0
309  0  0   5   0   0  1
310  2  0   0   0   0  0
311  0  1   0   0   1  0
312  0  0   2  67   4  0
313  1  0   0   0   0  0
314  0  0   5   0   0  1
315  2  0   0   0   0  0
316  0  1   0   0   1  0
317  0  0   2  68   4  0
318  1  0   0   0   0  0
319  0  0   5   0   0  1
320  2  0   0   0   0  0
321  0  1   0   0   1  0
322  0  0   2  69   4  0
323  1  0   0   0   0  0
324  0  0   5   0   0  1
325  2  0   0   0   0  0
326  0  1   0   0   1  0
327  0  0   2  70   4  0
328  1  0   0   0   0  0
329  0  0   5   0   0  1
330  2  0   0   0   0  0
331  0  1   0   0   1  0
332  0  0   2  71   4  0
333  1  0   0   0   0  0
334  0  0   5   0   0  1
335  2  0   0   0   0  0
336  0  1   0   0   1  0
337  0  0   2  72   4  0
338  1  0   0   0   0  0
339  0  0   5   0   0  1
340  2  0   0   0   0  0
341  0  1   0   0   1  0
342  0  0   2  73   4  0
343  1  0   0   0   0  0
344  0  0   5   0   0  1
345  2  0   0   0   0  0
346  0  1   0   0   1  0
347  0  0   2  74   4  0
348  1  0   0   0   0  0
349  0  0   5   0   0  1
350  2  0   0   0   0  0
351  0  1   0   0   1  0
352  0  0   2  75   4  0
353  1  0   0   0   0  0
354  0  0   5   0   0  1
355  2  0   0   0   0  0
356  0  1   0   0   1  0
357  0  0   2  76   4  0
358  1  0   0   0   0  0
359  0  0   5   0   0  1
360  2  0   0   0   0  0
361  0  1   0   0   1  0
362  0  0   2  77   4  0
363  1  0   0   0   0  0
364  0  0   5   0   0  1
365  2  0   0   0   0  0
366  0  1   0   0   1  0
367  0  0   2  78   4  0
368  1  0   0   0   0  0
369  0  0   5   0   0  1
370  2  0   0   0   0  0
371  0  1   0   0   1  0
372  0  0   2  79   4  0
373  1  0   0   0   0  0
374  0  0   5   0   0  1
375  2  0   0   0   0  0
376  0  1   0   0   1  0
377  0  0   2  80   4  0
378  1  0   0   0   0  0
379  0  0   5   0   0  1
380  2  0   0   0   0  0
381  0  1   0   0   1  0
382  0  0   2  81   4  0
383  1  0   0   0   0  0
384  0  0   5   0   0  1
385  2  0   0   0   0  0
386  0  1   0   0   1  0
387  0  0   2  82   4  0
388  1  0   0   0   0  0
389  0  0   5   0   0  1
390  2  0   0   0   0  0
391  0  1   0   0   1  0
392  0  0   2  83   4  0
[RF]
1       82.288 1 2 100 0 0

# Format of trapezoid gradients:
# id amplitude rise flat fall delay
# ..      Hz/m   us   us   us    us
[TRAP]
 1       200000  40 4000  40  60
 2      -126657  20 1960  20   0
 3      -126263  20 1960  20   0
 4      -205076  30 1940  30   0
 5        78125  20 6400  20   0
 6      -124290  20 1960  20   0
 7      -122317  20 1960  20   0
 8      -120344  20 1960  20   0
 9      -118371  20 1960  20   0
10      -116398  20 1960  20   0
11      -114426  20 1960  20   0
12      -112453  20 1960  20   0
13      -110480  20 1960  20   0
14      -108507  20 1960  20   0
15      -106534  20 1960  20   0
16      -104561  20 1960  20   0
17      -102588  20 1960  20   0
18      -100616  20 1960  20   0
19     -98642.7  20 1960  20   0
20     -96669.8  20 1960  20   0
21       -94697  20 1960  20   0
22     -92724.1  20 1960  20   0
23     -90751.3  20 1960  20   0
24     -88778.4  20 1960  20   0
25     -86805.6  20 1960  20   0
26     -84832.7  20 1960  20   0
27     -82859.8  20 1960  20   0
28       -80887  20 1960  20   0
29     -78914.1  20 1960  20   0
30     -76941.3  20 1960  20   0
31     -74968.4  20 1960  20   0
32     -72995.6  20 1960  20   0
33     -70665.8  10 1980  10   0
34     -68702.9  10 1980  10   0
35     -66739.9  10 1980  10   0
36       -64777  10 1980  10   0
37     -62814.1  10 1980  10   0
38     -60851.1  10 1980  10   0
39     -58888.2  10 1980  10   0
40     -56925.3  10 1980  10   0
41     -54962.3  10 1980  10   0
42     -52999.4  10 1980  10   0
43     -51036.4  10 1980  10   0
44     -49073.5  10 1980  10   0
45     -47110.6  10 1980  10   0
46     -45147.6  10 1980  10   0
47     -43184.7  10 1980  10   0
48     -41221.7  10 1980  10   0
49     -39258.8  10 1980  10   0
50     -37295.9  10 1980  10   0
51     -35332.9  10 1980  10   0
52       -33370  10 1980  10   0
53       -31407  10 1980  10   0
54     -29444.1  10 1980  10   0
55     -27481.2  10 1980  10   0
56     -25518.2  10 1980  10   0
57     -23555.3  10 1980  10   0
58     -21592.3  10 1980  10   0
59     -19629.4  10 1980  10   0
60     -17666.5  10 1980  10   0
61     -15703.5  10 1980  10   0
62     -13740.6  10 1980  10   0
63     -11777.6  10 1980  10   0
64      -9814.7  10 1980  10   0
65     -7851.76  10 1980  10   0
66     -5888.82  10 1980  10   0
67     -3925.88  10 1980  10   0
68     -1962.94  10 1980  10   0
69            0   0 2000   0   0
70      1962.94  10 1980  10   0
71      3925.88  10 1980  10   0
72      5888.82  10 1980  10   0
73      7851.76  10 1980  10   0
74       9814.7  10 1980  10   0
75      11777.6  10 1980  10   0
76      13740.6  10 1980  10   0
77      15703.5  10 1980  10   0
78      17666.5  10 1980  10   0
79      19629.4  10 1980  10   0
80      21592.3  10 1980  10   0
81      23555.3  10 1980  10   0
82      25518.2  10 1980  10   0
83      27481.2  10 1980  10   0
84      29444.1  10 1980  10   0
85        31407  10 1980  10   0
86        33370  10 1980  10   0
87      35332.9  10 1980  10   0
88      37295.9  10 1980  10   0
89      39258.8  10 1980  10   0
90      41221.7  10 1980  10   0
91      43184.7  10 1980  10   0
92      45147.6  10 1980  10   0
93      47110.6  10 1980  10   0
94      49073.5  10 1980  10   0
95      51036.4  10 1980  10   0
96      52999.4  10 1980  10   0
97      54962.3  10 1980  10   0
98      56925.3  10 1980  10   0
99      58888.2  10 1980  10   0
100      60851.1  10 1980  10   0
101      62814.1  10 1980  10   0
102        64777  10 1980  10   0
103      66739.9  10 1980  10   0
104      68702.9  10 1980  10   0
105      70665.8  10 1980  10   0
106      72995.6  20 1960  20   0
107      74968.4  20 1960  20   0
108      76941.3  20 1960  20   0
109      78914.1  20 1960  20   0
110        80887  20 1960  20   0
111      82859.8  20 1960  20   0
112      84832.7  20 1960  20   0
113      86805.6  20 1960  20   0
114      88778.4  20 1960  20   0
115      90751.3  20 1960  20   0
116      92724.1  20 1960  20   0
117        94697  20 1960  20   0
118      96669.8  20 1960  20   0
119      98642.7  20 1960  20   0
120       100616  20 1960  20   0
121       102588  20 1960  20   0
122       104561  20 1960  20   0
123       106534  20 1960  20   0
124       108507  20 1960  20   0
125       110480  20 1960  20   0
126       112453  20 1960  20   0
127       114426  20 1960  20   0
128       116398  20 1960  20   0
129       118371  20 1960  20   0
130       120344  20 1960  20   0
131       122317  20 1960  20   0
132       124290  20 1960  20   0

# Format of ADC events:
# id num dwell delay freq phase
# ..  ..    ns    us   Hz   rad
[ADC]
1 128 50000 20 0 0

# Format of delays:
# id delay (us)
[DELAYS]
1 2710
2 4710

# Sequence Shapes
[SHAPES]

shape_id 1
num_samples 4020
0
0
0
1e-08
1e-08
0
2e-08
3e-08
4e-08
5e-08
7e-08
8e-08
1e-07
1.3e-07
1.4e-07
1.7e-07
2e-07
2.2e-07
2.6e-07
2.8e-07
3.2e-07
3.6e-07
3.9e-07
4.4e-07
4.7e-07
5.2e-07
5.6e-07
6.2e-07
6.6e-07
7.1e-07
7.6e-07
8.2e-07
8.8e-07
9.3e-07
1e-06
1.06e-06
1.12e-06
1.19e-06
1.26e-06
1.33e-06
1.4e-06
1.47e-06
1.55e-06
1.63e-06
1.72e-06
1.79e-06
1.87e-06
1.97e-06
2.05e-06
2.14e-06
2.23e-06
2.33e-06
2.42e-06
2.52e-06
2.62e-06
2.72e-06
2.83e-06
2.93e-06
3.04e-06
3.15e-06
3.26e-06
3.37e-06
3.49e-06
3.61e-06
3.73e-06
3.84e-06
3.97e-06
4.1e-06
4.22e-06
4.36e-06
4.48e-06
4.62e-06
4.75e-06
4.89e-06
5.02e-06
5.17e-06
5.31e-06
5.46e-06
5.6e-06
5.76e-06
5.9e-06
6.05e-06
6.21e-06
6.37e-06
6.52e-06
6.69e-06
6.85e-06
7.01e-06
7.18e-06
7.34e-06
7.52e-06
7.69e-06
7.86e-06
8.04e-06
8.21e-06
8.4e-06
8.57e-06
8.76e-06
8.95e-06
9.13e-06
9.32e-06
9.52e-06
9.7e-06
9.91e-06
1.009e-05
1.03e-05
1.05e-05
1.07e-05
1.09e-05
1.111e-05
1.132e-05
1.153e-05
1.174e-05
1.196e-05
1.217e-05
1.239e-05
1.26e-05
1.283e-05
1.305e-05
1.328e-05
1.35e-05
1.374e-05
1.396e-05
1.419e-05
1.443e-05
1.466e-05
1.491e-05
1.514e-05
1.538e-05
1.562e-05
1.587e-05
1.612e-05
1.637e-05
1.661e-05
1.687e-05
1.712e-05
1.738e-05
1.763e-05
1.79e-05
1.815e-05
1.842e-05
1.868e-05
1.894e-05
1.922e-05
1.948e-05
1.976e-05
2.003e-05
2.03e-05
2.058e-05
2.085e-05
2.114e-05
2.142e-05
2.17e-05
2.198e-05
2.228e-05
2.256e-05
2.284e-05
2.315e-05
2.343e-05
2.373e-05
2.402e-05
2.432e-05
2.462e-05
2.492e-05
2.523e-05
2.553e-05
2.583e-05
2.614e-05
2.645e-05
2.676e-05
2.707e-05
2.739e-05
2.77e-05
2.802e-05
2.833e-05
2.866e-05
2.897e-05
2.93e-05
2.962e-05
2.995e-05
3.027e-05
3.06e-05
3.094e-05
3.126e-05
3.159e-05
3.193e-05
3.227e-05
3.26e-05
3.294e-05
3.328e-05
3.362e-05
3.397e-05
3.431e-05
3.465e-05
3.5e-05
3.534e-05
3.57e-05
3.605e-05
3.639e-05
3.676e-05
3.71e-05
3.746e-05
3.782e-05
3.818e-05
3.853e-05
3.89e-05
3.926e-05
3.962e-05
3.998e-05
4.035e-05
4.072e-05
4.108e-05
4.146e-05
4.182e-05
4.219e-05
4.257e-05
4.294e-05
4.332e-05
4.369e-05
4.407e-05
4.444e-05
4.483e-05
4.52e-05
4.559e-05
4.596e-05
4.635e-05
4.674e-05
4.712e-05
4.75e-05
4.79e-05
4.828e-05
4.867e-05
4.906e-05
4.945e-05
4.984e-05
5.023e-05
5.063e-05
5.103e-05
5.141e-05
5.182e-05
5.221e-05
5.261e-05
5.3e-05
5.341e-05
5.381e-05
5.421e-05
5.461e-05
5.501e-05
5.541e-05
5.582e-05
5.623e-05
5.663e-05
5.703e-05
5.745e-05
5.785e-05
5.826e-05
5.866e-05
5.908e-05
5.949e-05
5.989e-05
6.031e-05
6.072e-05
6.113e-05
6.155e-05
6.196e-05
6.237e-05
6.279e-05
6.32e-05
6.362e-05
6.403e-05
6.445e-05
6.486e-05
6.529e-05
6.57e-05
6.612e-05
6.654e-05
6.695e-05
6.738e-05
6.779e-05
6.822e-05
6.863e-05
6.905e-05
6.948e-05
6.99e-05
7.031e-05
7.074e-05
7.116e-05
7.158e-05
7.201e-05
7.242e-05
7.285e-05
7.327e-05
7.369e-05
7.412e-05
7.454e-05
7.496e-05
7.539e-05
7.58e-05
7.623e-05
7.666e-05
7.707e-05
7.75e-05
7.793e-05
7.834e-05
7.877e-05
7.919e-05
7.962e-05
8.003e-05
8.046e-05
8.088e-05
8.131e-05
8.173e-05
8.214e-05
8.257e-05
8.3e-05
8.341e-05
8.383e-05
8.426e-05
8.467e-05
8.51e-05
8.551e-05
8.594e-05
8.635e-05
8.677e-05
8.719e-05
8.761e-05
8.803e-05
8.845e-05
8.886e-05
8.927e-05
8.97e-05
9.011e-05
9.052e-05
9.094e-05
9.135e-05
9.176e-05
9.218e-05
9.259e-05
9.3e-05
9.341e-05
9.382e-05
9.423e-05
9.464e-05
9.505e-05
9.546e-05
9.586e-05
9.627e-05
9.667e-05
9.708e-05
9.748e-05
9.788e-05
9.829e-05
9.868e-05
9.909e-05
9.949e-05
9.988e-05
0.00010028
0.00010068
0.00010107
0.00010147
0.00010186
0.00010226
0.00010264
0.00010304
0.00010343
0.00010381
0.0001042
0.00010459
0.00010497
0.00010535
0.00010574
0.00010612
0.0001065
0.00010688
0.00010726
0.00010763
0.00010801
0.00010838
0.00010875
0.00010913
0.00010949
0.00010986
0.00011024
0.00011059
0.00011096
0.00011132
0.00011169
0.00011204
0.0001124
0.00011276
0.00011312
0.00011346
0.00011382
0.00011417
0.00011452
0.00011487
0.00011521
0.00011555
0.0001159
0.00011624
0.00011658
0.00011691
0.00011725
0.00011758
0.00011792
0.00011824
0.00011857
0.0001189
0.00011922
0.00011954
0.00011987
0.00012018
0.0001205
0.00012081
0.00012113
0.00012144
0.00012174
0.00012205
0.00012236
0.00012266
0.00012296
0.00012325
0.00012356
0.00012384
0.00012414
0.00012443
0.00012471
0.000125
0.00012528
0.00012557
0.00012584
0.00012611
0.00012639
0.00012666
0.00012693
0.0001272
0.00012746
0.00012772
0.00012798
0.00012823
0.00012849
0.00012874
0.000129
0.00012923
0.00012948
0.00012973
0.00012996
0.0001302
0.00013043
0.00013066
0.00013089
0.00013111
0.00013134
0.00013156
0.00013178
0.00013199
0.0001322
0.00013241
0.00013261
0.00013282
0.00013302
0.00013322
0.00013341
0.00013361
0.00013379
0.00013398
0.00013416
0.00013434
0.00013452
0.00013469
0.00013486
0.00013503
0.0001352
0.00013535
0.00013551
0.00013567
0.00013582
0.00013597
0.00013612
0.00013626
0.00013639
0.00013654
0.00013666
0.0001368
0.00013692
0.00013704
0.00013716
0.00013728
0.00013739
0.0001375
0.00013761
0.0001377
0.00013781
0.0001379
0.000138
0.00013808
0.00013817
0.00013824
0.00013833
0.0001384
0.00013847
0.00013854
0.0001386
0.00013866
0.00013871
0.00013877
0.00013881
0.00013886
0.00013891
0.00013893
0.00013898
0.000139
0.00013903
0.00013904
0.00013907
0.00013908
0.00013909
0.0001391
0.0001391
1
0.00013909
0.00013909
0
0.00013907
0.00013905
0.00013903
0.00013901
0.00013897
0.00013894
0.00013891
0.00013886
0.00013882
0.00013876
0.00013871
0.00013866
0.00013859
0.00013852
0.00013845
0.00013837
0.0001383
0.00013821
0.00013812
0.00013803
0.00013794
0.00013783
0.00013772
0.00013762
0.0001375
0.00013738
0.00013726
0.00013713
0.00013699
0.00013686
0.00013672
0.00013658
0.00013642
0.00013626
0.00013611
0.00013594
0.00013578
0.0001356
0.00013542
0.00013524
0.00013505
0.00013486
0.00013466
0.00013446
0.00013425
0.00013405
0.00013382
0.00013361
0.00013338
0.00013315
0.00013292
0.00013267
0.00013243
0.00013218
0.00013193
0.00013167
0.0001314
0.00013113
0.00013086
0.00013058
0.0001303
0.00013
0.00012971
0.00012942
0.0001291
0.0001288
0.00012849
0.00012816
0.00012784
0.00012752
0.00012717
0.00012684
0.00012649
0.00012614
0.00012578
0.00012543
0.00012506
0.00012469
0.00012431
0.00012393
0.00012354
0.00012315
0.00012275
0.00012236
0.00012194
0.00012153
0.00012111
0.00012069
0.00012026
0.00011982
0.00011938
0.00011894
0.00011849
0.00011803
0.00011756
0.0001171
0.00011663
0.00011615
0.00011567
0.00011518
0.00011468
0.00011418
0.00011368
0.00011316
0.00011265
0.00011212
0.0001116
0.00011107
0.00011052
0.00010998
0.00010943
0.00010887
0.00010831
0.00010775
0.00010717
0.00010659
0.000106
0.00010542
0.00010482
0.00010422
0.00010361
0.000103
0.00010238
0.00010175
0.00010112
0.00010049
9.985e-05
9.919e-05
9.855e-05
9.788e-05
9.722e-05
9.654e-05
9.587e-05
9.519e-05
9.45e-05
9.38e-05
9.31e-05
9.239e-05
9.169e-05
9.096e-05
9.024e-05
8.951e-05
8.877e-05
8.803e-05
8.728e-05
8.653e-05
8.577e-05
8.5e-05
8.423e-05
8.345e-05
8.266e-05
8.188e-05
8.108e-05
8.028e-05
7.947e-05
7.865e-05
7.783e-05
7.701e-05
7.617e-05
7.534e-05
7.449e-05
7.364e-05
7.278e-05
7.192e-05
7.105e-05
7.017e-05
6.929e-05
6.841e-05
6.751e-05
6.661e-05
6.57e-05
6.479e-05
6.388e-05
6.294e-05
6.202e-05
6.108e-05
6.014e-05
5.918e-05
5.823e-05
5.727e-05
5.63e-05
5.533e-05
5.435e-05
5.335e-05
5.237e-05
5.137e-05
5.036e-05
4.934e-05
4.833e-05
4.731e-05
4.627e-05
4.524e-05
4.42e-05
4.314e-05
4.209e-05
4.103e-05
3.996e-05
3.888e-05
3.78e-05
3.672e-05
3.562e-05
3.452e-05
3.342e-05
3.23e-05
3.119e-05
3.006e-05
2.893e-05
2.779e-05
2.664e-05
2.55e-05
2.434e-05
2.318e-05
2.2e-05
2.083e-05
1.965e-05
1.846e-05
1.727e-05
1.606e-05
1.486e-05
1.364e-05
1.243e-05
1.119e-05
9.97e-06
8.72e-06
7.48e-06
6.23e-06
4.96e-06
3.71e-06
2.43e-06
1.16e-06
-1.3e-07
-1.42e-06
-2.71e-06
-4.02e-06
-5.32e-06
-6.64e-06
-7.97e-06
-9.29e-06
-1.062e-05
-1.197e-05
-1.331e-05
-1.467e-05
-1.603e-05
-1.739e-05
-1.876e-05
-2.015e-05
-2.153e-05
-2.292e-05
-2.432e-05
-2.572e-05
-2.713e-05
-2.855e-05
-2.997e-05
-3.14e-05
-3.284e-05
-3.428e-05
-3.573e-05
-3.718e-05
-3.865e-05
-4.011e-05
-4.158e-05
-4.307e-05
-4.455e-05
-4.604e-05
-4.754e-05
-4.905e-05
-5.056e-05
-5.208e-05
-5.36e-05
-5.513e-05
-5.666e-05
-5.821e-05
-5.976e-05
-6.131e-05
-6.288e-05
-6.444e-05
-6.601e-05
-6.76e-05
-6.918e-05
-7.077e-05
-7.238e-05
-7.397e-05
-7.559e-05
-7.721e-05
-7.883e-05
-8.046e-05
-8.209e-05
-8.374e-05
-8.538e-05
-8.704e-05
-8.87e-05
-9.037e-05
-9.204e-05
-9.372e-05
-9.54e-05
-9.709e-05
-9.879e-05
-0.0001005
-0.0001022
-0.00010392
-0.00010564
-0.00010737
-0.0001091
-0.00011084
-0.00011258
-0.00011434
-0.0001161
-0.00011786
-0.00011963
-0.0001214
-0.00012319
-0.00012497
-0.00012677
-0.00012857
-0.00013037
-0.00013218
-0.00013401
-0.00013582
-0.00013766
-0.00013948
-0.00014134
-0.00014317
-0.00014503
-0.00014689
-0.00014875
-0.00015063
-0.0001525
-0.00015438
-0.00015627
-0.00015816
-0.00016006
-0.00016197
-0.00016388
-0.00016579
-0.00016772
-0.00016964
-0.00017158
-0.00017352
-0.00017546
-0.00017742
-0.00017937
-0.00018133
-0.0001833
-0.00018527
-0.00018725
-0.00018924
-0.00019122
-0.00019323
-0.00019522
-0.00019723
-0.00019924
-0.00020126
-0.00020328
-0.00020532
-0.00020734
-0.00020939
-0.00021143
-0.00021348
-0.00021554
-0.0002176
-0.00021966
-0.00022174
-0.00022381
-0.0002259
-0.00022798
-0.00023008
-0.00023218
-0.00023428
-0.00023639
-0.00023851
-0.00024062
-0.00024275
-0.00024488
-0.00024701
-0.00024916
-0.0002513
-0.00025345
-0.00025561
-0.00025777
-0.00025993
-0.0002621
-0.00026428
-0.00026646
-0.00026865
-0.00027084
-0.00027303
-0.00027524
-0.00027744
-0.00027965
-0.00028187
-0.00028409
-0.00028631
-0.00028855
-0.00029077
-0.00029302
-0.00029527
-0.00029751
-0.00029977
-0.00030202
-0.00030429
-0.00030656
-0.00030883
-0.00031111
-0.00031339
-0.00031567
-0.00031797
-0.00032027
-0.00032256
-0.00032487
-0.00032718
-0.0003295
-0.00033181
-0.00033413
-0.00033647
-0.00033879
-0.00034113
-0.00034347
-0.00034582
-0.00034816
-0.00035052
-0.00035288
-0.00035524
-0.0003576
-0.00035998
-0.00036235
-0.00036472
-0.00036712
-0.00036949
-0.00037189
-0.00037429
-0.00037668
-0.00037909
-0.0003815
-0.0003839
-0.00038632
-0.00038875
-0.00039116
-0.00039359
-0.00039602
-0.00039846
-0.00040089
-0.00040334
-0.00040579
-0.00040823
-0.00041069
-0.00041314
-0.00041561
-0.00041807
-0.00042053
-0.00042301
-0.00042549
-0.00042796
-0.00043045
-0.00043294
-0.00043542
-0.00043791
-0.00044042
-0.00044291
-0.00044541
-0.00044792
-0.00045044
-0.00045294
-0.00045546
-0.00045798
-0.0004605
-0.00046303
-0.00046556
-0.00046809
-0.00047063
-0.00047317
-0.0004757
-0.00047825
-0.0004808
-0.00048335
-0.00048591
-0.00048846
-0.00049102
-0.00049358
-0.00049614
-0.00049872
0.00050129
0.00050386
0.00050643
0.00050902
0.00051159
0.00051418
0.00051677
0.00051936
0.00052195
0.00052454
0.00052714
0.00052974
0.00053235
0.00053494
0.00053756
0.00054016
0.00054278
0.00054539
0.000548
0.00055063
0.00055324
0.00055587
0.00055849
0.00056112
0.00056375
0.00056638
0.00056901
0.00057165
0.00057429
0.00057693
0.00057956
0.00058221
0.00058486
0.0005875
0.00059015
0.00059281
0.00059545
0.00059811
0.00060076
0.00060342
0.00060608
0.00060874
0.0006114
0.00061407
0.00061673
0.0006194
0.00062206
0.00062473
0.00062741
0.00063008
0.00063275
0.00063542
0.0006381
0.00064078
0.00064346
0.00064613
0.00064882
0.0006515
0.00065418
0.00065686
0.00065955
0.00066223
0.00066492
0.00066761
0.0006703
0.00067298
0.00067568
0.00067836
0.00068106
0.00068375
0.00068644
0.00068914
0.00069183
0.00069452
0.00069722
0.00069992
0.00070261
0.0007053
0.00070801
0.0007107
0.0007134
0.00071609
0.0007188
0.00072149
0.00072419
0.00072689
0.00072959
0.00073229
0.00073498
0.00073769
0.00074038
0.00074308
0.00074579
0.00074848
0.00075118
0.00075387
0.00075658
0.00075927
0.00076197
0.00076467
0.00076737
0.00077006
0.00077276
0.00077545
0.00077815
0.00078084
0.00078354
0.00078623
0.00078892
0.00079162
0.00079431
0.000797
0.00079968
0.00080238
0.00080507
0.00080775
0.00081044
0.00081312
0.00081581
0.0008185
0.00082117
0.00082386
0.00082654
0.00082921
0.0008319
0.00083457
0.00083724
0.00083992
0.0008426
0.00084526
0.00084794
0.0008506
0.00085327
0.00085594
0.0008586
0.00086126
0.00086392
0.00086658
0.00086924
0.0008719
0.00087455
0.0008772
0.00087985
0.0008825
0.00088514
0.00088779
0.00089044
0.00089307
0.00089571
0.00089835
0.00090098
0.00090361
0.00090625
0.00090887
0.0009115
0.00091411
0.00091674
0.00091936
0.00092198
0.00092458
0.0009272
0.00092981
0.00093241
0.00093502
0.00093761
0.00094021
0.00094281
0.0009454
0.00094799
0.00095058
0.00095316
0.00095574
0.00095832
0.00096089
0.00096347
0.00096603
0.0009686
0.00097117
0.00097372
0.00097628
0.00097883
0.00098138
0.00098393
0.00098647
0.00098901
0.00099155
0.00099408
0.00099661
0.00099914
0.00100166
0.00100417
0.00100669
0.00100921
0.00101171
0.00101421
0.00101672
0.00101921
0.0010217
0.00102419
0.00102668
0.00102916
0.00103163
0.00103411
0.00103657
0.00103904
0.0010415
0.00104396
0.00104641
0.00104885
0.0010513
0.00105374
0.00105617
0.0010586
0.00106103
0.00106345
0.00106586
0.00106828
0.00107068
0.00107309
0.00107549
0.00107788
0.00108026
0.00108266
0.00108503
0.0010874
0.00108978
0.00109214
0.0010945
0.00109685
0.0010992
0.00110155
0.00110388
0.00110623
0.00110854
0.00111088
0.00111319
0.0011155
0.00111782
0.00112011
0.00112242
0.0011247
0.00112699
0.00112927
0.00113155
0.00113381
0.00113608
0.00113834
0.00114059
0.00114284
0.00114508
0.00114731
0.00114955
0.00115176
0.00115399
0.0011562
0.0011584
0.0011606
0.0011628
0.00116498
0.00116717
0.00116934
0.00117151
0.00117368
0.00117583
0.00117798
0.00118012
0.00118227
0.00118439
0.00118652
0.00118864
0.00119075
0.00119285
0.00119496
0.00119705
0.00119913
0.00120121
0.00120328
0.00120535
0.00120741
0.00120946
0.0012115
0.00121355
0.00121557
0.0012176
0.00121962
0.00122162
0.00122363
0.00122563
0.00122761
0.0012296
0.00123157
0.00123354
0.0012355
0.00123745
0.0012394
0.00124133
0.00124327
0.00124519
0.00124711
0.00124901
0.00125092
0.0012528
0.0012547
0.00125657
0.00125844
0.00126031
0.00126216
0.00126401
0.00126584
0.00126768
0.00126951
0.00127131
0.00127313
0.00127493
0.00127672
0.0012785
0.00128028
0.00128204
0.00128381
0.00128555
0.00128731
0.00128903
0.00129076
0.00129249
0.00129419
0.00129589
0.00129759
0.00129927
0.00130095
0.00130262
0.00130427
0.00130593
0.00130757
0.00130921
0.00131083
0.00131245
0.00131405
0.00131566
0.00131724
0.00131883
0.0013204
0.00132196
0.00132352
0.00132507
0.00132661
0.00132813
0.00132965
0.00133116
0.00133267
0.00133415
0.00133564
0.00133712
0.00133858
0.00134003
0.00134148
0.00134292
0.00134435
0.00134576
0.00134718
0.00134857
0.00134997
0.00135134
0.00135272
0.00135408
0.00135544
0.00135677
0.00135811
0.00135944
0.00136074
0.00136206
0.00136334
0.00136464
0.00136591
0.00136717
0.00136843
0.00136968
0.00137091
0.00137214
0.00137336
0.00137456
0.00137576
0.00137695
0.00137812
0.00137929
0.00138044
0.0013816
0.00138273
0.00138385
0.00138497
0.00138608
0.00138717
0.00138826
0.00138934
0.00139039
0.00139146
0.0013925
0.00139353
0.00139455
0.00139557
0.00139657
0.00139756
0.00139855
0.00139951
0.00140048
0.00140142
0.00140237
0.00140329
0.00140422
0.00140512
0.00140601
0.00140691
0.00140778
0.00140864
0.0014095
0.00141034
0.00141117
0.00141199
0.00141281
0.0014136
0.00141439
0.00141518
0.00141593
0.0014167
0.00141744
0.00141817
0.00141889
0.00141961
0.00142031
0.001421
0.00142167
0.00142235
0.001423
0.00142364
0.00142428
0.0014249
0.00142551
0.00142611
0.00142671
0.00142727
0.00142785
0.0014284
0.00142894
0.00142947
