# Pulseq sequence file
# Created by MATLAB mr toolbox

[VERSION]
major 1
minor 2
revision 1

[DEFINITIONS]
Name gre 

# Format of blocks:
#  #  D RF  GX  GY  GZ ADC
[BLOCKS]
  1  0  1   0   0   0  0
  2  0  0   1   2   0  0
  3  1  0   0   0   0  0
  4  0  0   3   0   0  1
  5  2  0   4   5   6  0
  6  0  2   0   0   0  0
  7  0  0   1   7   0  0
  8  1  0   0   0   0  0
  9  0  0   3   0   0  2
 10  2  0   4   8   6  0
 11  0  3   0   0   0  0
 12  0  0   1   9   0  0
 13  1  0   0   0   0  0
 14  0  0   3   0   0  3
 15  2  0   4  10   6  0
 16  0  4   0   0   0  0
 17  0  0   1  11   0  0
 18  1  0   0   0   0  0
 19  0  0   3   0   0  4
 20  2  0   4  12   6  0
 21  0  5   0   0   0  0
 22  0  0   1  13   0  0
 23  1  0   0   0   0  0
 24  0  0   3   0   0  5
 25  2  0   4  14   6  0
 26  0  6   0   0   0  0
 27  0  0   1  15   0  0
 28  1  0   0   0   0  0
 29  0  0   3   0   0  6
 30  2  0   4  16   6  0
 31  0  7   0   0   0  0
 32  0  0   1  17   0  0
 33  1  0   0   0   0  0
 34  0  0   3   0   0  7
 35  2  0   4  18   6  0
 36  0  8   0   0   0  0
 37  0  0   1  19   0  0
 38  1  0   0   0   0  0
 39  0  0   3   0   0  8
 40  2  0   4  20   6  0
 41  0  9   0   0   0  0
 42  0  0   1  21   0  0
 43  1  0   0   0   0  0
 44  0  0   3   0   0  9
 45  2  0   4  22   6  0
 46  0 10   0   0   0  0
 47  0  0   1  23   0  0
 48  1  0   0   0   0  0
 49  0  0   3   0   0 10
 50  2  0   4  24   6  0
 51  0  6   0   0   0  0
 52  0  0   1  25   0  0
 53  1  0   0   0   0  0
 54  0  0   3   0   0  6
 55  2  0   4  26   6  0
 56  0 11   0   0   0  0
 57  0  0   1  27   0  0
 58  1  0   0   0   0  0
 59  0  0   3   0   0 11
 60  2  0   4  28   6  0
 61  0 12   0   0   0  0
 62  0  0   1  29   0  0
 63  1  0   0   0   0  0
 64  0  0   3   0   0 12
 65  2  0   4  30   6  0
 66  0 13   0   0   0  0
 67  0  0   1  31   0  0
 68  1  0   0   0   0  0
 69  0  0   3   0   0 13
 70  2  0   4  32   6  0
 71  0 14   0   0   0  0
 72  0  0   1  33   0  0
 73  1  0   0   0   0  0
 74  0  0   3   0   0 14
 75  2  0   4  34   6  0
 76  0  1   0   0   0  0
 77  0  0   1  35   0  0
 78  1  0   0   0   0  0
 79  0  0   3   0   0  1
 80  2  0   4  36   6  0
 81  0 15   0   0   0  0
 82  0  0   1  37   0  0
 83  1  0   0   0   0  0
 84  0  0   3   0   0 15
 85  2  0   4  38   6  0
 86  0 16   0   0   0  0
 87  0  0   1  39   0  0
 88  1  0   0   0   0  0
 89  0  0   3   0   0 16
 90  2  0   4  40   6  0
 91  0 13   0   0   0  0
 92  0  0   1  41   0  0
 93  1  0   0   0   0  0
 94  0  0   3   0   0 13
 95  2  0   4  42   6  0
 96  0 17   0   0   0  0
 97  0  0   1  43   0  0
 98  1  0   0   0   0  0
 99  0  0   3   0   0 17
100  2  0   4  44   6  0
101  0  5   0   0   0  0
102  0  0   1  45   0  0
103  1  0   0   0   0  0
104  0  0   3   0   0  5
105  2  0   4  46   6  0
106  0 18   0   0   0  0
107  0  0   1  47   0  0
108  1  0   0   0   0  0
109  0  0   3   0   0 18
110  2  0   4  48   6  0
111  0 19   0   0   0  0
112  0  0   1  46   0  0
113  1  0   0   0   0  0
114  0  0   3   0   0 19
115  2  0   4  45   6  0
116  0  9   0   0   0  0
117  0  0   1  44   0  0
118  1  0   0   0   0  0
119  0  0   3   0   0  9
120  2  0   4  43   6  0
121  0 20   0   0   0  0
122  0  0   1  42   0  0
123  1  0   0   0   0  0
124  0  0   3   0   0 20
125  2  0   4  41   6  0
126  0 10   0   0   0  0
127  0  0   1  40   0  0
128  1  0   0   0   0  0
129  0  0   3   0   0 10
130  2  0   4  39   6  0
131  0 18   0   0   0  0
132  0  0   1  38   0  0
133  1  0   0   0   0  0
134  0  0   3   0   0 18
135  2  0   4  37   6  0
136  0 21   0   0   0  0
137  0  0   1  36   0  0
138  1  0   0   0   0  0
139  0  0   3   0   0 21
140  2  0   4  35   6  0
141  0  4   0   0   0  0
142  0  0   1  34   0  0
143  1  0   0   0   0  0
144  0  0   3   0   0  4
145  2  0   4  33   6  0
146  0 22   0   0   0  0
147  0  0   1  32   0  0
148  1  0   0   0   0  0
149  0  0   3   0   0 22
150  2  0   4  31   6  0
151  0 14   0   0   0  0
152  0  0   1  30   0  0
153  1  0   0   0   0  0
154  0  0   3   0   0 14
155  2  0   4  29   6  0
156  0 15   0   0   0  0
157  0  0   1  28   0  0
158  1  0   0   0   0  0
159  0  0   3   0   0 15
160  2  0   4  27   6  0
161  0 23   0   0   0  0
162  0  0   1  26   0  0
163  1  0   0   0   0  0
164  0  0   3   0   0 23
165  2  0   4  25   6  0
166  0  2   0   0   0  0
167  0  0   1  24   0  0
168  1  0   0   0   0  0
169  0  0   3   0   0  2
170  2  0   4  23   6  0
171  0 22   0   0   0  0
172  0  0   1  22   0  0
173  1  0   0   0   0  0
174  0  0   3   0   0 22
175  2  0   4  21   6  0
176  0 17   0   0   0  0
177  0  0   1  20   0  0
178  1  0   0   0   0  0
179  0  0   3   0   0 17
180  2  0   4  19   6  0
181  0 11   0   0   0  0
182  0  0   1  18   0  0
183  1  0   0   0   0  0
184  0  0   3   0   0 11
185  2  0   4  17   6  0
186  0 24   0   0   0  0
187  0  0   1  16   0  0
188  1  0   0   0   0  0
189  0  0   3   0   0 24
190  2  0   4  15   6  0
191  0  7   0   0   0  0
192  0  0   1  14   0  0
193  1  0   0   0   0  0
194  0  0   3   0   0  7
195  2  0   4  13   6  0
196  0 20   0   0   0  0
197  0  0   1  12   0  0
198  1  0   0   0   0  0
199  0  0   3   0   0 20
200  2  0   4  11   6  0
201  0 20   0   0   0  0
202  0  0   1  10   0  0
203  1  0   0   0   0  0
204  0  0   3   0   0 20
205  2  0   4   9   6  0
206  0  7   0   0   0  0
207  0  0   1   8   0  0
208  1  0   0   0   0  0
209  0  0   3   0   0  7
210  2  0   4   7   6  0

# Format of RF events:
# id amplitude mag_id phase_id delay freq phase
# ..        Hz   ....     ....    us   Hz   rad
[RF]
1      3.47222 1 2 100 0 0
2      3.47222 1 2 100 0 2.04204
3      3.47222 1 2 100 0 6.12611
4      3.47222 1 2 100 0 5.96903
5      3.47222 1 2 100 0 1.5708
6      3.47222 1 2 100 0 5.49779
7      3.47222 1 2 100 0 5.18363
8      3.47222 1 2 100 0 0.628319
9      3.47222 1 2 100 0 4.39823
10      3.47222 1 2 100 0 3.92699
11      3.47222 1 2 100 0 2.82743
12      3.47222 1 2 100 0 2.19911
13      3.47222 1 2 100 0 3.61283
14      3.47222 1 2 100 0 0.785398
15      3.47222 1 2 100 0 1.25664
16      3.47222 1 2 100 0 4.55531
17      3.47222 1 2 100 0 4.71239
18      3.47222 1 2 100 0 0.471239
19      3.47222 1 2 100 0 1.41372
20      3.47222 1 2 100 0 3.14159
21      3.47222 1 2 100 0 5.34071
22      3.47222 1 2 100 0 2.35619
23      3.47222 1 2 100 0 3.76991
24      3.47222 1 2 100 0 2.98451

# Format of trapezoid gradients:
# id amplitude rise flat fall delay
# ..      Hz/m   us   us   us    us
[TRAP]
 1     -48042.1  10 1980  10   0
 2     -47967.1  10 1980  10   0
 3      29829.5  10 6400  10   0
 4  1.15702e+06  10  320  10   0
 5      47967.1  10 1980  10   0
 6        1e+06  10   10  10   0
 7       -45683  10 1980  10   0
 8        45683  10 1980  10   0
 9     -43398.8  10 1980  10   0
10      43398.8  10 1980  10   0
11     -41114.7  10 1980  10   0
12      41114.7  10 1980  10   0
13     -38830.5  10 1980  10   0
14      38830.5  10 1980  10   0
15     -36546.4  10 1980  10   0
16      36546.4  10 1980  10   0
17     -34262.2  10 1980  10   0
18      34262.2  10 1980  10   0
19     -31978.1  10 1980  10   0
20      31978.1  10 1980  10   0
21     -29693.9  10 1980  10   0
22      29693.9  10 1980  10   0
23     -27409.8  10 1980  10   0
24      27409.8  10 1980  10   0
25     -25125.6  10 1980  10   0
26      25125.6  10 1980  10   0
27     -22841.5  10 1980  10   0
28      22841.5  10 1980  10   0
29     -20557.3  10 1980  10   0
30      20557.3  10 1980  10   0
31     -18273.2  10 1980  10   0
32      18273.2  10 1980  10   0
33       -15989  10 1980  10   0
34        15989  10 1980  10   0
35     -13704.9  10 1980  10   0
36      13704.9  10 1980  10   0
37     -11420.7  10 1980  10   0
38      11420.7  10 1980  10   0
39     -9136.59  10 1980  10   0
40      9136.59  10 1980  10   0
41     -6852.44  10 1980  10   0
42      6852.44  10 1980  10   0
43      -4568.3  10 1980  10   0
44       4568.3  10 1980  10   0
45     -2284.15  10 1980  10   0
46      2284.15  10 1980  10   0
47            0   0 2000   0   0
48           -0   0 2000   0   0

# Format of ADC events:
# id num dwell delay freq phase
# ..  ..    ns    us   Hz   rad
[ADC]
1 42 152381 10 0 0
2 42 152381 10 0 2.04204
3 42 152381 10 0 6.12611
4 42 152381 10 0 5.96903
5 42 152381 10 0 1.5708
6 42 152381 10 0 5.49779
7 42 152381 10 0 5.18363
8 42 152381 10 0 0.628319
9 42 152381 10 0 4.39823
10 42 152381 10 0 3.92699
11 42 152381 10 0 2.82743
12 42 152381 10 0 2.19911
13 42 152381 10 0 3.61283
14 42 152381 10 0 0.785398
15 42 152381 10 0 1.25664
16 42 152381 10 0 4.55531
17 42 152381 10 0 4.71239
18 42 152381 10 0 0.471239
19 42 152381 10 0 1.41372
20 42 152381 10 0 3.14159
21 42 152381 10 0 5.34071
22 42 152381 10 0 2.35619
23 42 152381 10 0 3.76991
24 42 152381 10 0 2.98451

# Format of delays:
# id delay (us)
[DELAYS]
1 8590
2 95830

# Sequence Shapes
[SHAPES]

shape_id 1
num_samples 4020
1
0
0
3997
-1
0
0
17

shape_id 2
num_samples 4020
0
0
4018

