# Pulseq sequence file
# Created by MATLAB mr toolbox

[VERSION]
major 1
minor 4
revision 0

[DEFINITIONS]
AdcRasterTime 1e-07 
BlockDurationRaster 1e-05 
FOV 0.26 0.26 0.003 
GradientRasterTime 1e-05 
Name gre_rad 
RadiofrequencyRasterTime 1e-06 
TotalDuration 5.54277 

# Format of blocks:
# NUM DUR RF  GX  GY  GZ  ADC  EXT
[BLOCKS]
   1 417   1   0   0   1  0  0
   2 200   0   3   4   2  0  0
   3 310   0   0   0   0  0  0
   4 166   0   5   6   0  0  0
   5 908   0   8   9   7  0  0
   6 417   2   0   0   1  0  0
   7 200   0  10  11   2  0  0
   8 310   0   0   0   0  0  0
   9 166   0  12  13   0  0  0
  10 908   0  14  15   7  0  0
  11 417   3   0   0   1  0  0
  12 200   0  16  17   2  0  0
  13 310   0   0   0   0  0  0
  14 166   0  18  19   0  0  0
  15 908   0  20  21   7  0  0
  16 417   4   0   0   1  0  0
  17 200   0  22  23   2  0  0
  18 310   0   0   0   0  0  0
  19 166   0  24  25   0  0  0
  20 908   0  26  27   7  0  0
  21 417   5   0   0   1  0  0
  22 200   0  28  29   2  0  0
  23 310   0   0   0   0  0  0
  24 166   0  30  31   0  0  0
  25 908   0  32  33   7  0  0
  26 417   6   0   0   1  0  0
  27 200   0  34  35   2  0  0
  28 310   0   0   0   0  0  0
  29 166   0  36  37   0  0  0
  30 908   0  38  39   7  0  0
  31 417   7   0   0   1  0  0
  32 200   0  40  41   2  0  0
  33 310   0   0   0   0  0  0
  34 166   0  42  43   0  0  0
  35 908   0  44  45   7  0  0
  36 417   8   0   0   1  0  0
  37 200   0  46  47   2  0  0
  38 310   0   0   0   0  0  0
  39 166   0  48  49   0  0  0
  40 908   0  50  51   7  0  0
  41 417   9   0   0   1  0  0
  42 200   0  52  53   2  0  0
  43 310   0   0   0   0  0  0
  44 166   0  54  55   0  0  0
  45 908   0  56  57   7  0  0
  46 417  10   0   0   1  0  0
  47 200   0  58  59   2  0  0
  48 310   0   0   0   0  0  0
  49 166   0  60  61   0  0  0
  50 908   0  62  63   7  0  0
  51 417   6   0   0   1  0  0
  52 200   0  64  65   2  0  0
  53 310   0   0   0   0  0  0
  54 166   0  66  67   0  0  0
  55 908   0  68  69   7  0  0
  56 417  11   0   0   1  0  0
  57 200   0  70  71   2  0  0
  58 310   0   0   0   0  0  0
  59 166   0  72  73   0  0  0
  60 908   0  74  75   7  0  0
  61 417  12   0   0   1  0  0
  62 200   0  76  77   2  0  0
  63 310   0   0   0   0  0  0
  64 166   0  78  79   0  0  0
  65 908   0  80  81   7  0  0
  66 417  13   0   0   1  0  0
  67 200   0  82  83   2  0  0
  68 310   0   0   0   0  0  0
  69 166   0  84  85   0  0  0
  70 908   0  86  87   7  0  0
  71 417  14   0   0   1  0  0
  72 200   0  88  89   2  0  0
  73 310   0   0   0   0  0  0
  74 166   0  90  91   0  0  0
  75 908   0  92  93   7  0  0
  76 417   1   0   0   1  0  0
  77 200   0  94  95   2  0  0
  78 310   0   0   0   0  0  0
  79 166   0  96  97   0  0  0
  80 908   0  98  99   7  0  0
  81 417  15   0   0   1  0  0
  82 200   0 100 101   2  0  0
  83 310   0   0   0   0  0  0
  84 166   0 102 103   0  0  0
  85 908   0 104 105   7  0  0
  86 417  16   0   0   1  0  0
  87 200   0 106 107   2  0  0
  88 310   0   0   0   0  0  0
  89 166   0 108 109   0  0  0
  90 908   0 110 111   7  0  0
  91 417  13   0   0   1  0  0
  92 200   0 112 113   2  0  0
  93 310   0   0   0   0  0  0
  94 166   0 114 115   0  0  0
  95 908   0 116 117   7  0  0
  96 417  17   0   0   1  0  0
  97 200   0 118 119   2  0  0
  98 310   0   0   0   0  0  0
  99 166   0 120 121   0  0  0
 100 908   0 122 123   7  0  0
 101 417   5   0   0   1  0  0
 102 200   0 124 125   2  0  0
 103 310   0   0   0   0  0  0
 104 166   0 126 127   0  0  0
 105 908   0 128 129   7  0  0
 106 417  18   0   0   1  0  0
 107 200   0 130   0   2  0  0
 108 310   0   0   0   0  0  0
 109 166   0 131   0   0  1  0
 110 908   0 132   0   7  0  0
 111 417  19   0   0   1  0  0
 112 200   0 124 133   2  0  0
 113 310   0   0   0   0  0  0
 114 166   0 126 134   0  2  0
 115 908   0 128 135   7  0  0
 116 417   9   0   0   1  0  0
 117 200   0 118 136   2  0  0
 118 310   0   0   0   0  0  0
 119 166   0 120 137   0  3  0
 120 908   0 122 138   7  0  0
 121 417  20   0   0   1  0  0
 122 200   0 112 139   2  0  0
 123 310   0   0   0   0  0  0
 124 166   0 114 140   0  4  0
 125 908   0 116 141   7  0  0
 126 417  10   0   0   1  0  0
 127 200   0 106 142   2  0  0
 128 310   0   0   0   0  0  0
 129 166   0 108 143   0  5  0
 130 908   0 110 144   7  0  0
 131 417  18   0   0   1  0  0
 132 200   0 100 145   2  0  0
 133 310   0   0   0   0  0  0
 134 166   0 102 146   0  1  0
 135 908   0 104 147   7  0  0
 136 417  21   0   0   1  0  0
 137 200   0  94 148   2  0  0
 138 310   0   0   0   0  0  0
 139 166   0  96 149   0  6  0
 140 908   0  98 150   7  0  0
 141 417   4   0   0   1  0  0
 142 200   0  88 151   2  0  0
 143 310   0   0   0   0  0  0
 144 166   0  90 152   0  7  0
 145 908   0  92 153   7  0  0
 146 417  22   0   0   1  0  0
 147 200   0  82 154   2  0  0
 148 310   0   0   0   0  0  0
 149 166   0  84 155   0  8  0
 150 908   0  86 156   7  0  0
 151 417  14   0   0   1  0  0
 152 200   0  76 157   2  0  0
 153 310   0   0   0   0  0  0
 154 166   0  78 158   0  9  0
 155 908   0  80 159   7  0  0
 156 417  15   0   0   1  0  0
 157 200   0  70 160   2  0  0
 158 310   0   0   0   0  0  0
 159 166   0  72 161   0 10  0
 160 908   0  74 162   7  0  0
 161 417  23   0   0   1  0  0
 162 200   0  64 163   2  0  0
 163 310   0   0   0   0  0  0
 164 166   0  66 164   0 11  0
 165 908   0  68 165   7  0  0
 166 417   2   0   0   1  0  0
 167 200   0  58 166   2  0  0
 168 310   0   0   0   0  0  0
 169 166   0  60 167   0 12  0
 170 908   0  62 168   7  0  0
 171 417  22   0   0   1  0  0
 172 200   0  52 169   2  0  0
 173 310   0   0   0   0  0  0
 174 166   0  54 170   0  8  0
 175 908   0  56 171   7  0  0
 176 417  17   0   0   1  0  0
 177 200   0  46 172   2  0  0
 178 310   0   0   0   0  0  0
 179 166   0  48 173   0 13  0
 180 908   0  50 174   7  0  0
 181 417  11   0   0   1  0  0
 182 200   0  40 175   2  0  0
 183 310   0   0   0   0  0  0
 184 166   0  42 176   0 14  0
 185 908   0  44 177   7  0  0
 186 417  24   0   0   1  0  0
 187 200   0  34 178   2  0  0
 188 310   0   0   0   0  0  0
 189 166   0  36 179   0 15  0
 190 908   0  38 180   7  0  0
 191 417   7   0   0   1  0  0
 192 200   0  28 181   2  0  0
 193 310   0   0   0   0  0  0
 194 166   0  30 182   0 16  0
 195 908   0  32 183   7  0  0
 196 417  20   0   0   1  0  0
 197 200   0  22 184   2  0  0
 198 310   0   0   0   0  0  0
 199 166   0  24 185   0  4  0
 200 908   0  26 186   7  0  0
 201 417  20   0   0   1  0  0
 202 200   0  16 187   2  0  0
 203 310   0   0   0   0  0  0
 204 166   0  18 188   0  4  0
 205 908   0  20 189   7  0  0
 206 417   7   0   0   1  0  0
 207 200   0  10 190   2  0  0
 208 310   0   0   0   0  0  0
 209 166   0  12 191   0 16  0
 210 908   0  14 192   7  0  0
 211 417  24   0   0   1  0  0
 212 200   0   3 193   2  0  0
 213 310   0   0   0   0  0  0
 214 166   0   5 194   0 15  0
 215 908   0   8 195   7  0  0
 216 417  11   0   0   1  0  0
 217 200   0 196 197   2  0  0
 218 310   0   0   0   0  0  0
 219 166   0 198 199   0 14  0
 220 908   0 200 201   7  0  0
 221 417  17   0   0   1  0  0
 222 200   0 202 203   2  0  0
 223 310   0   0   0   0  0  0
 224 166   0 204 205   0 13  0
 225 908   0 206 207   7  0  0
 226 417  22   0   0   1  0  0
 227 200   0 208 209   2  0  0
 228 310   0   0   0   0  0  0
 229 166   0 210 211   0  8  0
 230 908   0 212 213   7  0  0
 231 417   2   0   0   1  0  0
 232 200   0 214 215   2  0  0
 233 310   0   0   0   0  0  0
 234 166   0 216 217   0 12  0
 235 908   0 218 219   7  0  0
 236 417  23   0   0   1  0  0
 237 200   0 220 221   2  0  0
 238 310   0   0   0   0  0  0
 239 166   0 222 223   0 11  0
 240 908   0 224 225   7  0  0
 241 417  15   0   0   1  0  0
 242 200   0 226 227   2  0  0
 243 310   0   0   0   0  0  0
 244 166   0 228 229   0 10  0
 245 908   0 230 231   7  0  0
 246 417  14   0   0   1  0  0
 247 200   0 232 233   2  0  0
 248 310   0   0   0   0  0  0
 249 166   0 234 235   0  9  0
 250 908   0 236 237   7  0  0
 251 417  22   0   0   1  0  0
 252 200   0 238 239   2  0  0
 253 310   0   0   0   0  0  0
 254 166   0 240 241   0  8  0
 255 908   0 242 243   7  0  0
 256 417   4   0   0   1  0  0
 257 200   0 244 245   2  0  0
 258 310   0   0   0   0  0  0
 259 166   0 246 247   0  7  0
 260 908   0 248 249   7  0  0
 261 417  21   0   0   1  0  0
 262 200   0 250 251   2  0  0
 263 310   0   0   0   0  0  0
 264 166   0 252 253   0  6  0
 265 908   0 254 255   7  0  0
 266 417  18   0   0   1  0  0
 267 200   0 256 257   2  0  0
 268 310   0   0   0   0  0  0
 269 166   0 258 259   0  1  0
 270 908   0 260 261   7  0  0
 271 417  10   0   0   1  0  0
 272 200   0 262 263   2  0  0
 273 310   0   0   0   0  0  0
 274 166   0 264 265   0  5  0
 275 908   0 266 267   7  0  0
 276 417  20   0   0   1  0  0
 277 200   0 268 269   2  0  0
 278 310   0   0   0   0  0  0
 279 166   0 270 271   0  4  0
 280 908   0 272 273   7  0  0
 281 417   9   0   0   1  0  0
 282 200   0 274 275   2  0  0
 283 310   0   0   0   0  0  0
 284 166   0 276 277   0  3  0
 285 908   0 278 279   7  0  0
 286 417  19   0   0   1  0  0
 287 200   0 280 281   2  0  0
 288 310   0   0   0   0  0  0
 289 166   0 282 283   0  2  0
 290 908   0 284 285   7  0  0
 291 417  18   0   0   1  0  0
 292 200   0 286 287   2  0  0
 293 310   0   0   0   0  0  0
 294 166   0 288 289   0  1  0
 295 908   0 290 291   7  0  0
 296 417   5   0   0   1  0  0
 297 200   0 292 293   2  0  0
 298 310   0   0   0   0  0  0
 299 166   0 294 295   0 17  0
 300 908   0 296 297   7  0  0
 301 417  17   0   0   1  0  0
 302 200   0 298 299   2  0  0
 303 310   0   0   0   0  0  0
 304 166   0 300 301   0 13  0
 305 908   0 302 303   7  0  0
 306 417  13   0   0   1  0  0
 307 200   0 304 305   2  0  0
 308 310   0   0   0   0  0  0
 309 166   0 306 307   0 18  0
 310 908   0 308 309   7  0  0
 311 417  16   0   0   1  0  0
[RF]
1      27.4293 1 2 0 100 0 0
2      27.4293 1 2 0 100 0 2.04204
3      27.4293 1 2 0 100 0 6.12611
4      27.4293 1 2 0 100 0 5.96903
5      27.4293 1 2 0 100 0 1.5708
6      27.4293 1 2 0 100 0 5.49779
7      27.4293 1 2 0 100 0 5.18363
8      27.4293 1 2 0 100 0 0.628319
9      27.4293 1 2 0 100 0 4.39823
10      27.4293 1 2 0 100 0 3.92699
11      27.4293 1 2 0 100 0 2.82743
12      27.4293 1 2 0 100 0 2.19911
13      27.4293 1 2 0 100 0 3.61283
14      27.4293 1 2 0 100 0 0.785398
15      27.4293 1 2 0 100 0 1.25664
16      27.4293 1 2 0 100 0 4.55531
17      27.4293 1 2 0 100 0 4.71239
18      27.4293 1 2 0 100 0 0.471239
19      27.4293 1 2 0 100 0 1.41372
20      27.4293 1 2 0 100 0 3.14159
21      27.4293 1 2 0 100 0 5.34071
22      27.4293 1 2 0 100 0 2.35619
23      27.4293 1 2 0 100 0 3.76991
24      27.4293 1 2 0 100 0 2.98451

# Format of trapezoid gradients:
# id amplitude rise flat fall delay
# ..      Hz/m   us   us   us    us
[TRAP]
 1       333333  70 4000  70  30
 2      -351468  70 1860  70   0
 3      -356902  80 1840  80   0
 4      94068.5  80 1840  80   0
 5       929785 190 1280 190   0
 6      -245063 190 1280 190   0
 7  1.19048e+06 240  880 240   0
 8  1.14435e+06 240  280 240   0
 9      -301616 240  280 240   0
10      -358029  80 1840  80   0
11      89681.7  80 1840  80   0
12       932722 190 1280 190   0
13      -233635 190 1280 190   0
14  1.14797e+06 240  280 240   0
15      -287551 240  280 240   0
16      -359103  80 1840  80   0
17      85281.4  80 1840  80   0
18       935519 190 1280 190   0
19      -222171 190 1280 190   0
20  1.15141e+06 240  280 240   0
21      -273442 240  280 240   0
22      -360122  80 1840  80   0
23      80868.2  80 1840  80   0
24       938175 190 1280 190   0
25      -210674 190 1280 190   0
26  1.15468e+06 240  280 240   0
27      -259291 240  280 240   0
28      -361088  80 1840  80   0
29      76442.9  80 1840  80   0
30       940690 190 1280 190   0
31      -199146 190 1280 190   0
32  1.15777e+06 240  280 240   0
33      -245102 240  280 240   0
34      -361999  80 1840  80   0
35        72006  80 1840  80   0
36       943063 190 1280 190   0
37      -187587 190 1280 190   0
38  1.16069e+06 240  280 240   0
39      -230876 240  280 240   0
40      -362855  80 1840  80   0
41      67558.3  80 1840  80   0
42       945294 190 1280 190   0
43      -176000 190 1280 190   0
44  1.16344e+06 240  280 240   0
45      -216615 240  280 240   0
46      -363657  80 1840  80   0
47      63100.4  80 1840  80   0
48       947382 190 1280 190   0
49      -164386 190 1280 190   0
50  1.16601e+06 240  280 240   0
51      -202322 240  280 240   0
52      -364404  80 1840  80   0
53        58633  80 1840  80   0
54       949328 190 1280 190   0
55      -152748 190 1280 190   0
56   1.1684e+06 240  280 240   0
57      -187998 240  280 240   0
58      -365096  80 1840  80   0
59      54156.8  80 1840  80   0
60       951131 190 1280 190   0
61      -141087 190 1280 190   0
62  1.17062e+06 240  280 240   0
63      -173646 240  280 240   0
64      -365733  80 1840  80   0
65      49672.5  80 1840  80   0
66       952791 190 1280 190   0
67      -129405 190 1280 190   0
68  1.17267e+06 240  280 240   0
69      -159267 240  280 240   0
70      -366315  80 1840  80   0
71      45180.6  80 1840  80   0
72       954307 190 1280 190   0
73      -117703 190 1280 190   0
74  1.17453e+06 240  280 240   0
75      -144865 240  280 240   0
76      -366842  80 1840  80   0
77        40682  80 1840  80   0
78       955680 190 1280 190   0
79      -105983 190 1280 190   0
80  1.17622e+06 240  280 240   0
81      -130440 240  280 240   0
82      -367313  80 1840  80   0
83      36177.2  80 1840  80   0
84       956908 190 1280 190   0
85     -94247.3 190 1280 190   0
86  1.17773e+06 240  280 240   0
87      -115997 240  280 240   0
88      -367730  80 1840  80   0
89        31667  80 1840  80   0
90       957993 190 1280 190   0
91     -82497.4 190 1280 190   0
92  1.17907e+06 240  280 240   0
93      -101535 240  280 240   0
94      -368090  80 1840  80   0
95        27152  80 1840  80   0
96       958933 190 1280 190   0
97     -70735.2 190 1280 190   0
98  1.18023e+06 240  280 240   0
99     -87058.7 240  280 240   0
100      -368396  80 1840  80   0
101      22632.9  80 1840  80   0
102       959729 190 1280 190   0
103     -58962.2 190 1280 190   0
104   1.1812e+06 240  280 240   0
105     -72568.9 240  280 240   0
106      -368646  80 1840  80   0
107      18110.4  80 1840  80   0
108       960380 190 1280 190   0
109     -47180.5 190 1280 190   0
110  1.18201e+06 240  280 240   0
111     -58068.3 240  280 240   0
112      -368840  80 1840  80   0
113      13585.2  80 1840  80   0
114       960887 190 1280 190   0
115     -35391.6 190 1280 190   0
116  1.18263e+06 240  280 240   0
117     -43558.8 240  280 240   0
118      -368979  80 1840  80   0
119      9057.94  80 1840  80   0
120       961249 190 1280 190   0
121     -23597.3 190 1280 190   0
122  1.18308e+06 240  280 240   0
123     -29042.9 240  280 240   0
124      -369063  80 1840  80   0
125      4529.31  80 1840  80   0
126       961466 190 1280 190   0
127     -11799.6 190 1280 190   0
128  1.18334e+06 240  280 240   0
129     -14522.5 240  280 240   0
130      -369091  80 1840  80   0
131       961538 190 1280 190   0
132  1.18343e+06 240  280 240   0
133     -4529.31  80 1840  80   0
134      11799.6 190 1280 190   0
135      14522.5 240  280 240   0
136     -9057.94  80 1840  80   0
137      23597.3 190 1280 190   0
138      29042.9 240  280 240   0
139     -13585.2  80 1840  80   0
140      35391.6 190 1280 190   0
141      43558.8 240  280 240   0
142     -18110.4  80 1840  80   0
143      47180.5 190 1280 190   0
144      58068.3 240  280 240   0
145     -22632.9  80 1840  80   0
146      58962.2 190 1280 190   0
147      72568.9 240  280 240   0
148       -27152  80 1840  80   0
149      70735.2 190 1280 190   0
150      87058.7 240  280 240   0
151       -31667  80 1840  80   0
152      82497.4 190 1280 190   0
153       101535 240  280 240   0
154     -36177.2  80 1840  80   0
155      94247.3 190 1280 190   0
156       115997 240  280 240   0
157       -40682  80 1840  80   0
158       105983 190 1280 190   0
159       130440 240  280 240   0
160     -45180.6  80 1840  80   0
161       117703 190 1280 190   0
162       144865 240  280 240   0
163     -49672.5  80 1840  80   0
164       129405 190 1280 190   0
165       159267 240  280 240   0
166     -54156.8  80 1840  80   0
167       141087 190 1280 190   0
168       173646 240  280 240   0
169       -58633  80 1840  80   0
170       152748 190 1280 190   0
171       187998 240  280 240   0
172     -63100.4  80 1840  80   0
173       164386 190 1280 190   0
174       202322 240  280 240   0
175     -67558.3  80 1840  80   0
176       176000 190 1280 190   0
177       216615 240  280 240   0
178       -72006  80 1840  80   0
179       187587 190 1280 190   0
180       230876 240  280 240   0
181     -76442.9  80 1840  80   0
182       199146 190 1280 190   0
183       245102 240  280 240   0
184     -80868.2  80 1840  80   0
185       210674 190 1280 190   0
186       259291 240  280 240   0
187     -85281.4  80 1840  80   0
188       222171 190 1280 190   0
189       273442 240  280 240   0
190     -89681.7  80 1840  80   0
191       233635 190 1280 190   0
192       287551 240  280 240   0
193     -94068.5  80 1840  80   0
194       245063 190 1280 190   0
195       301616 240  280 240   0
196      -355721  80 1840  80   0
197     -98441.2  80 1840  80   0
198       926708 190 1280 190   0
199       256455 190 1280 190   0
200  1.14056e+06 240  280 240   0
201       315636 240  280 240   0
202      -354486  80 1840  80   0
203      -102799  80 1840  80   0
204       923491 190 1280 190   0
205       267807 190 1280 190   0
206   1.1366e+06 240  280 240   0
207       329609 240  280 240   0
208      -353198  80 1840  80   0
209      -107141  80 1840  80   0
210       920135 190 1280 190   0
211       279120 190 1280 190   0
212  1.13247e+06 240  280 240   0
213       343532 240  280 240   0
214      -351856  80 1840  80   0
215      -111468  80 1840  80   0
216       916640 190 1280 190   0
217       290390 190 1280 190   0
218  1.12817e+06 240  280 240   0
219       357403 240  280 240   0
220      -350462  80 1840  80   0
221      -115777  80 1840  80   0
222       913008 190 1280 190   0
223       301617 190 1280 190   0
224   1.1237e+06 240  280 240   0
225       371221 240  280 240   0
226      -349015  80 1840  80   0
227      -120069  80 1840  80   0
228       909238 190 1280 190   0
229       312798 190 1280 190   0
230  1.11906e+06 240  280 240   0
231       384983 240  280 240   0
232      -347515  80 1840  80   0
233      -124343  80 1840  80   0
234       905331 190 1280 190   0
235       323933 190 1280 190   0
236  1.11425e+06 240  280 240   0
237       398686 240  280 240   0
238      -345963  80 1840  80   0
239      -128598  80 1840  80   0
240       901288 190 1280 190   0
241       335018 190 1280 190   0
242  1.10928e+06 240  280 240   0
243       412330 240  280 240   0
244      -344359  80 1840  80   0
245      -132834  80 1840  80   0
246       897108 190 1280 190   0
247       346053 190 1280 190   0
248  1.10413e+06 240  280 240   0
249       425911 240  280 240   0
250      -342703  80 1840  80   0
251      -137050  80 1840  80   0
252       892794 190 1280 190   0
253       357036 190 1280 190   0
254  1.09882e+06 240  280 240   0
255       439429 240  280 240   0
256      -340995  80 1840  80   0
257      -141245  80 1840  80   0
258       888346 190 1280 190   0
259       367965 190 1280 190   0
260  1.09335e+06 240  280 240   0
261       452880 240  280 240   0
262      -339236  80 1840  80   0
263      -145419  80 1840  80   0
264       883763 190 1280 190   0
265       378839 190 1280 190   0
266  1.08771e+06 240  280 240   0
267       466263 240  280 240   0
268      -337426  80 1840  80   0
269      -149571  80 1840  80   0
270       879048 190 1280 190   0
271       389655 190 1280 190   0
272  1.08191e+06 240  280 240   0
273       479576 240  280 240   0
274      -335565  80 1840  80   0
275      -153700  80 1840  80   0
276       874200 190 1280 190   0
277       400413 190 1280 190   0
278  1.07594e+06 240  280 240   0
279       492816 240  280 240   0
280      -333654  80 1840  80   0
281      -157807  80 1840  80   0
282       869220 190 1280 190   0
283       411111 190 1280 190   0
284  1.06981e+06 240  280 240   0
285       505982 240  280 240   0
286      -331692  80 1840  80   0
287      -161889  80 1840  80   0
288       864110 190 1280 190   0
289       421746 190 1280 190   0
290  1.06352e+06 240  280 240   0
291       519072 240  280 240   0
292      -329681  80 1840  80   0
293      -165947  80 1840  80   0
294       858870 190 1280 190   0
295       432319 190 1280 190   0
296  1.05707e+06 240  280 240   0
297       532084 240  280 240   0
298      -327619  80 1840  80   0
299      -169980  80 1840  80   0
300       853500 190 1280 190   0
301       442826 190 1280 190   0
302  1.05046e+06 240  280 240   0
303       545016 240  280 240   0
304      -325509  80 1840  80   0
305      -173988  80 1840  80   0
306       848001 190 1280 190   0
307       453266 190 1280 190   0
308  1.04369e+06 240  280 240   0
309       557866 240  280 240   0
310      -323349  80 1840  80   0
311      -177969  80 1840  80   0
312       842375 190 1280 190   0
313       463638 190 1280 190   0
314  1.03677e+06 240  280 240   0
315       570632 240  280 240   0
316      -321141  80 1840  80   0
317      -181924  80 1840  80   0
318       836622 190 1280 190   0
319       473941 190 1280 190   0
320  1.02969e+06 240  280 240   0
321       583311 240  280 240   0
322      -318884  80 1840  80   0
323      -185851  80 1840  80   0
324       830743 190 1280 190   0
325       484172 190 1280 190   0
326  1.02245e+06 240  280 240   0
327       595903 240  280 240   0
328      -316580  80 1840  80   0
329      -189750  80 1840  80   0
330       824739 190 1280 190   0
331       494330 190 1280 190   0
332  1.01506e+06 240  280 240   0
333       608406 240  280 240   0
334      -314227  80 1840  80   0
335      -193621  80 1840  80   0
336       818611 190 1280 190   0
337       504413 190 1280 190   0
338  1.00752e+06 240  280 240   0
339       620816 240  280 240   0
340      -311827  80 1840  80   0
341      -197463  80 1840  80   0
342       812359 190 1280 190   0
343       514421 190 1280 190   0
344       999827 240  280 240   0
345       633133 240  280 240   0
346      -309381  80 1840  80   0
347      -201274  80 1840  80   0
348       805985 190 1280 190   0
349       524351 190 1280 190   0
350       991982 240  280 240   0
351       645355 240  280 240   0
352      -306888  80 1840  80   0
353      -205056  80 1840  80   0
354       799490 190 1280 190   0
355       534202 190 1280 190   0
356       983988 240  280 240   0
357       657480 240  280 240   0
358      -304348  80 1840  80   0
359      -208806  80 1840  80   0
360       792874 190 1280 190   0
361       543973 190 1280 190   0
362       975845 240  280 240   0
363       669505 240  280 240   0
364      -301763  80 1840  80   0
365      -212525  80 1840  80   0
366       786139 190 1280 190   0
367       553662 190 1280 190   0
368       967556 240  280 240   0
369       681430 240  280 240   0
370      -299132  80 1840  80   0
371      -216212  80 1840  80   0
372       779286 190 1280 190   0
373       563267 190 1280 190   0
374       959121 240  280 240   0
375       693252 240  280 240   0
376      -296456  80 1840  80   0
377      -219867  80 1840  80   0
378       772315 190 1280 190   0
379       572788 190 1280 190   0
380       950541 240  280 240   0
381       704970 240  280 240   0
382      -293736  80 1840  80   0
383      -223488  80 1840  80   0
384       765228 190 1280 190   0
385       582222 190 1280 190   0
386       941819 240  280 240   0
387       716581 240  280 240   0
388      -290971  80 1840  80   0
389      -227076  80 1840  80   0
390       758025 190 1280 190   0
391       591569 190 1280 190   0
392       932954 240  280 240   0
393       728085 240  280 240   0
394      -288163  80 1840  80   0
395      -230630  80 1840  80   0
396       750709 190 1280 190   0
397       600826 190 1280 190   0
398       923949 240  280 240   0
399       739479 240  280 240   0
400      -285311  80 1840  80   0
401      -234149  80 1840  80   0
402       743279 190 1280 190   0
403       609994 190 1280 190   0
404       914805 240  280 240   0
405       750761 240  280 240   0
406      -282416  80 1840  80   0
407      -237632  80 1840  80   0
408       735738 190 1280 190   0
409       619069 190 1280 190   0
410       905523 240  280 240   0
411       761931 240  280 240   0
412      -279479  80 1840  80   0
413      -241080  80 1840  80   0
414       728085 190 1280 190   0
415       628051 190 1280 190   0
416       896105 240  280 240   0
417       772986 240  280 240   0
418      -276499  80 1840  80   0
419      -244491  80 1840  80   0
420       720323 190 1280 190   0
421       636938 190 1280 190   0
422       886552 240  280 240   0
423       783924 240  280 240   0
424      -273478  80 1840  80   0
425      -247866  80 1840  80   0
426       712453 190 1280 190   0
427       645730 190 1280 190   0
428       876865 240  280 240   0
429       794744 240  280 240   0
430      -270416  80 1840  80   0
431      -251203  80 1840  80   0
432       704475 190 1280 190   0
433       654424 190 1280 190   0
434       867046 240  280 240   0
435       805445 240  280 240   0
436      -267313  80 1840  80   0
437      -254503  80 1840  80   0
438       696391 190 1280 190   0
439       663020 190 1280 190   0
440       857097 240  280 240   0
441       816024 240  280 240   0
442      -264169  80 1840  80   0
443      -257764  80 1840  80   0
444       688203 190 1280 190   0
445       671516 190 1280 190   0
446       847019 240  280 240   0
447       826481 240  280 240   0
448      -260986  80 1840  80   0
449       679910 190 1280 190   0
450       836813 240  280 240   0
451      98441.2  80 1840  80   0
452      -256455 190 1280 190   0
453      -315636 240  280 240   0
454       102799  80 1840  80   0
455      -267807 190 1280 190   0
456      -329609 240  280 240   0
457       107141  80 1840  80   0
458      -279120 190 1280 190   0
459      -343532 240  280 240   0
460       111468  80 1840  80   0
461      -290390 190 1280 190   0
462      -357403 240  280 240   0
463       115777  80 1840  80   0
464      -301617 190 1280 190   0
465      -371221 240  280 240   0
466       120069  80 1840  80   0
467      -312798 190 1280 190   0
468      -384983 240  280 240   0
469       124343  80 1840  80   0
470      -323933 190 1280 190   0
471      -398686 240  280 240   0
472       128598  80 1840  80   0
473      -335018 190 1280 190   0
474      -412330 240  280 240   0
475       132834  80 1840  80   0
476      -346053 190 1280 190   0
477      -425911 240  280 240   0
478       137050  80 1840  80   0
479      -357036 190 1280 190   0
480      -439429 240  280 240   0
481       141245  80 1840  80   0
482      -367965 190 1280 190   0
483      -452880 240  280 240   0
484       145419  80 1840  80   0
485      -378839 190 1280 190   0
486      -466263 240  280 240   0
487       149571  80 1840  80   0
488      -389655 190 1280 190   0
489      -479576 240  280 240   0
490       153700  80 1840  80   0
491      -400413 190 1280 190   0
492      -492816 240  280 240   0
493       157807  80 1840  80   0
494      -411111 190 1280 190   0
495      -505982 240  280 240   0
496       161889  80 1840  80   0
497      -421746 190 1280 190   0
498      -519072 240  280 240   0
499       165947  80 1840  80   0
500      -432319 190 1280 190   0
501      -532084 240  280 240   0
502       169980  80 1840  80   0
503      -442826 190 1280 190   0
504      -545016 240  280 240   0
505       173988  80 1840  80   0
506      -453266 190 1280 190   0
507      -557866 240  280 240   0
508       177969  80 1840  80   0
509      -463638 190 1280 190   0
510      -570632 240  280 240   0
511       181924  80 1840  80   0
512      -473941 190 1280 190   0
513      -583311 240  280 240   0
514       185851  80 1840  80   0
515      -484172 190 1280 190   0
516      -595903 240  280 240   0
517       189750  80 1840  80   0
518      -494330 190 1280 190   0
519      -608406 240  280 240   0
520       193621  80 1840  80   0
521      -504413 190 1280 190   0
522      -620816 240  280 240   0
523       197463  80 1840  80   0
524      -514421 190 1280 190   0
525      -633133 240  280 240   0
526       201274  80 1840  80   0
527      -524351 190 1280 190   0
528      -645355 240  280 240   0
529       205056  80 1840  80   0
530      -534202 190 1280 190   0
531      -657480 240  280 240   0
532       208806  80 1840  80   0
533      -543973 190 1280 190   0
534      -669505 240  280 240   0
535       212525  80 1840  80   0
536      -553662 190 1280 190   0
537      -681430 240  280 240   0
538       216212  80 1840  80   0
539      -563267 190 1280 190   0
540      -693252 240  280 240   0
541       219867  80 1840  80   0
542      -572788 190 1280 190   0
543      -704970 240  280 240   0
544       223488  80 1840  80   0
545      -582222 190 1280 190   0
546      -716581 240  280 240   0
547       227076  80 1840  80   0
548      -591569 190 1280 190   0
549      -728085 240  280 240   0
550       230630  80 1840  80   0
551      -600826 190 1280 190   0
552      -739479 240  280 240   0
553       234149  80 1840  80   0
554      -609994 190 1280 190   0
555      -750761 240  280 240   0
556       237632  80 1840  80   0
557      -619069 190 1280 190   0
558      -761931 240  280 240   0
559       241080  80 1840  80   0
560      -628051 190 1280 190   0
561      -772986 240  280 240   0
562       244491  80 1840  80   0
