# Pulseq sequence file
# Created by MATLAB mr toolbox

[VERSION]
major 1
minor 2
revision 1

# Format of blocks:
#  #  D RF  GX  GY  GZ ADC
[BLOCKS]
  1  0  1   0   0   0  0
  2  0  0   1   1   0  0
  3  0  0   0   2   0  0
  4  1  0   0   0   0  0
  5  0  0   3   0   0  1
  6  0  0   2   0   0  0
  7  0  0   0   2   0  0
  8  1  0   0   0   0  0
  9  0  0   4   0   0  1
 10  0  0   5   0   0  0
 11  0  0   0   2   0  0
 12  1  0   0   0   0  0
 13  0  0   3   0   0  1
 14  0  0   2   0   0  0
 15  0  0   0   2   0  0
 16  1  0   0   0   0  0
 17  0  0   4   0   0  1
 18  0  0   5   0   0  0
 19  0  0   0   2   0  0
 20  1  0   0   0   0  0
 21  0  0   3   0   0  1
 22  0  0   2   0   0  0
 23  0  0   0   2   0  0
 24  1  0   0   0   0  0
 25  0  0   4   0   0  1
 26  0  0   5   0   0  0
 27  0  0   0   2   0  0
 28  1  0   0   0   0  0
 29  0  0   3   0   0  1
 30  0  0   2   0   0  0
 31  0  0   0   2   0  0
 32  1  0   0   0   0  0
 33  0  0   4   0   0  1
 34  0  0   5   0   0  0
 35  0  0   0   2   0  0
 36  1  0   0   0   0  0
 37  0  0   3   0   0  1
 38  0  0   2   0   0  0
 39  0  0   0   2   0  0
 40  1  0   0   0   0  0
 41  0  0   4   0   0  1
 42  0  0   5   0   0  0
 43  0  0   0   2   0  0
 44  1  0   0   0   0  0
 45  0  0   3   0   0  1
 46  0  0   2   0   0  0
 47  0  0   0   2   0  0
 48  1  0   0   0   0  0
 49  0  0   4   0   0  1
 50  0  0   5   0   0  0
 51  0  0   0   2   0  0
 52  1  0   0   0   0  0
 53  0  0   3   0   0  1
 54  0  0   2   0   0  0
 55  0  0   0   2   0  0
 56  1  0   0   0   0  0
 57  0  0   4   0   0  1
 58  0  0   5   0   0  0
 59  0  0   0   2   0  0
 60  1  0   0   0   0  0
 61  0  0   3   0   0  1
 62  0  0   2   0   0  0
 63  0  0   0   2   0  0
 64  1  0   0   0   0  0
 65  0  0   4   0   0  1
 66  0  0   5   0   0  0
 67  0  0   0   2   0  0
 68  1  0   0   0   0  0
 69  0  0   3   0   0  1
 70  0  0   2   0   0  0
 71  0  0   0   2   0  0
 72  1  0   0   0   0  0
 73  0  0   4   0   0  1
 74  0  0   5   0   0  0
 75  0  0   0   2   0  0
 76  1  0   0   0   0  0
 77  0  0   3   0   0  1
 78  0  0   2   0   0  0
 79  0  0   0   2   0  0
 80  1  0   0   0   0  0
 81  0  0   4   0   0  1
 82  0  0   5   0   0  0
 83  0  0   0   2   0  0
 84  1  0   0   0   0  0
 85  0  0   3   0   0  1
 86  0  0   2   0   0  0
 87  0  0   0   2   0  0
 88  1  0   0   0   0  0
 89  0  0   4   0   0  1
 90  0  0   5   0   0  0
 91  0  0   0   2   0  0
 92  1  0   0   0   0  0
 93  0  0   3   0   0  1
 94  0  0   2   0   0  0
 95  0  0   0   2   0  0
 96  1  0   0   0   0  0
 97  0  0   4   0   0  1
 98  0  0   5   0   0  0
 99  0  0   0   2   0  0
100  1  0   0   0   0  0
101  0  0   3   0   0  1
102  0  0   2   0   0  0
103  0  0   0   2   0  0
104  1  0   0   0   0  0
105  0  0   4   0   0  1
106  0  0   5   0   0  0
107  0  0   0   2   0  0
108  1  0   0   0   0  0
109  0  0   3   0   0  1
110  0  0   2   0   0  0
111  0  0   0   2   0  0
112  1  0   0   0   0  0
113  0  0   4   0   0  1
114  0  0   5   0   0  0
115  0  0   0   2   0  0
116  1  0   0   0   0  0
117  0  0   3   0   0  1
118  0  0   2   0   0  0
119  0  0   0   2   0  0
120  1  0   0   0   0  0
121  0  0   4   0   0  1
122  0  0   5   0   0  0
123  0  0   0   2   0  0
124  1  0   0   0   0  0
125  0  0   3   0   0  1
126  0  0   2   0   0  0
127  0  0   0   2   0  0
128  1  0   0   0   0  0
129  0  0   4   0   0  1
130  0  0   5   0   0  0
131  0  0   0   2   0  0
132  1  0   0   0   0  0
133  0  0   3   0   0  1
134  0  0   2   0   0  0
135  0  0   0   2   0  0
136  1  0   0   0   0  0
137  0  0   4   0   0  1
138  0  0   5   0   0  0
139  0  0   0   2   0  0
140  1  0   0   0   0  0
141  0  0   3   0   0  1
142  0  0   2   0   0  0
143  0  0   0   2   0  0
144  1  0   0   0   0  0
145  0  0   4   0   0  1
146  0  0   5   0   0  0
147  0  0   0   2   0  0
148  1  0   0   0   0  0
149  0  0   3   0   0  1
150  0  0   2   0   0  0
151  0  0   0   2   0  0
152  1  0   0   0   0  0
153  0  0   4   0   0  1
154  0  0   5   0   0  0
155  0  0   0   2   0  0
156  1  0   0   0   0  0
157  0  0   3   0   0  1
158  0  0   2   0   0  0
159  0  0   0   2   0  0
160  1  0   0   0   0  0
161  0  0   4   0   0  1
162  0  0   5   0   0  0
163  0  0   0   2   0  0
164  1  0   0   0   0  0
165  0  0   3   0   0  1
166  0  0   2   0   0  0
167  0  0   0   2   0  0
168  1  0   0   0   0  0
169  0  0   4   0   0  1
170  0  0   5   0   0  0
171  0  0   0   2   0  0
172  1  0   0   0   0  0
173  0  0   3   0   0  1
174  0  0   2   0   0  0
175  0  0   0   2   0  0
176  1  0   0   0   0  0
177  0  0   4   0   0  1
178  0  0   5   0   0  0
179  0  0   0   2   0  0
180  1  0   0   0   0  0
181  0  0   3   0   0  1
182  0  0   2   0   0  0
183  0  0   0   2   0  0
184  1  0   0   0   0  0
185  0  0   4   0   0  1
186  0  0   5   0   0  0
187  0  0   0   2   0  0
188  1  0   0   0   0  0
189  0  0   3   0   0  1
190  0  0   2   0   0  0
191  0  0   0   2   0  0
192  1  0   0   0   0  0
193  0  0   4   0   0  1
194  0  0   5   0   0  0

# Format of RF events:
# id amplitude mag_id phase_id delay freq phase
# ..        Hz   ....     ....    us   Hz   rad
[RF]
1       78.125 1 2 0 0 0

# Format of trapezoid gradients:
# id amplitude rise flat fall delay
# ..      Hz/m   us   us   us    us
[TRAP]
 1     -34090.9   0 3200   0   0
 2      1420.45   0 3200   0   0
 3      68181.8   0 3200   0   0
 4     -68181.8   0 3200   0   0
 5     -1420.45   0 3200   0   0

# Format of ADC events:
# id num dwell delay freq phase
# ..  ..    ns    us   Hz   rad
[ADC]
1 48 66667 0 0 0

# Format of delays:
# id delay (us)
[DELAYS]
1 1000

# Sequence Shapes
[SHAPES]

shape_id 1
num_samples 3200
1
0
0
3197

shape_id 2
num_samples 3200
0
0
3198

